Index	Potential applied (V)	Time (s)	WE(1).Current (A)	WE(1).Potential (V)
1	0.00244140625	286.737112276058	-2.21160888671875E-05	0.00260314941406251
2	0.0048828125	286.761512275997	-2.236328125E-05	0.0050323486328125
3	0.00732421875	286.785912275935	-2.15728759765625E-05	0.007476806640625
4	0.009765625	286.810312275874	-2.15667724609375E-05	0.0099029541015625
5	0.01220703125	286.834712275812	-2.10845947265625E-05	0.012353515625
6	0.0146484375	286.85911227575	-2.078857421875E-05	0.0148193359375
7	0.01708984375	286.883512275689	-2.076416015625E-05	0.017230224609375
8	0.01953125	286.907912275627	-2.00775146484375E-05	0.0196685791015625
9	0.02197265625	286.932312275566	-2.01934814453125E-05	0.022113037109375
10	0.0244140625	286.956712275504	-1.9329833984375E-05	0.0245849609375
11	0.02685546875	286.981112275442	-1.94854736328125E-05	0.026995849609375
12	0.029296875	287.005512275381	-1.89453125E-05	0.0294281005859375
13	0.03173828125	287.029912275319	-1.86676025390625E-05	0.0318572998046875
14	0.0341796875	287.054312275258	-1.846923828125E-05	0.0343170166015625
15	0.03662109375	287.078712275196	-1.78009033203125E-05	0.036773681640625
16	0.0390625	287.103112275134	-1.78924560546875E-05	0.0392059326171875
17	0.04150390625	287.127512275073	-1.70684814453125E-05	0.0416534423828125
18	0.0439453125	287.151912275011	-1.71600341796875E-05	0.044097900390625
19	0.04638671875	287.17631227495	-1.644287109375E-05	0.0465423583984375
20	0.048828125	287.200712274888	-1.63604736328125E-05	0.0489837646484375
21	0.05126953125	287.225112274826	-1.60400390625E-05	0.051361083984375
22	0.0537109375	287.249512274765	-1.55029296875E-05	0.05377197265625
23	0.05615234375	287.273912274703	-1.552734375E-05	0.056243896484375
24	0.05859375	287.298312274641	-1.4678955078125E-05	0.0587158203125
25	0.06103515625	287.32271227458	-1.488037109375E-05	0.061126708984375
26	0.0634765625	287.347112274518	-1.39801025390625E-05	0.063568115234375
27	0.06591796875	287.371512274457	-1.38214111328125E-05	0.066009521484375
28	0.068359375	287.395912274395	-1.34765625E-05	0.068389892578125
29	0.07080078125	287.420312274333	-1.30859375E-05	0.0709228515625
30	0.0732421875	287.444712274272	-1.30279541015625E-05	0.073333740234375
31	0.07568359375	287.46911227421	-1.2310791015625E-05	0.075775146484375
32	0.078125	287.493512274149	-1.23321533203125E-05	0.0782470703125
33	0.08056640625	287.517912274087	-1.14898681640625E-05	0.08062744140625
34	0.0830078125	287.542312274025	-1.1669921875E-05	0.083038330078125
35	0.08544921875	287.566712273964	-1.10321044921875E-05	0.085540771484375
36	0.087890625	287.591112273902	-1.0772705078125E-05	0.087921142578125
37	0.09033203125	287.615512273841	-1.05926513671875E-05	0.09039306640625
38	0.0927734375	287.639912273779	-9.9639892578125E-06	0.092803955078125
39	0.09521484375	287.664312273717	-1.0150146484375E-05	0.0953369140625
40	0.09765625	287.688712273656	-9.2864990234375E-06	0.09771728515625
41	0.10009765625	287.713112273594	-9.2926025390625E-06	0.100189208984375
42	0.1025390625	287.737512273533	-8.660888671875E-06	0.1026611328125
43	0.10498046875	287.761912273471	-8.4564208984375E-06	0.105072021484375
44	0.107421875	287.786312273409	-8.1329345703125E-06	0.107452392578125
45	0.10986328125	287.810712273348	-7.4798583984375E-06	0.110015869140625
46	0.1123046875	287.835112273286	-7.7239990234375E-06	0.1124267578125
47	0.11474609375	287.859512273225	-6.6680908203125E-06	0.1148681640625
48	0.1171875	287.883912273163	-6.8634033203125E-06	0.11724853515625
49	0.11962890625	287.908312273101	-6.2744140625E-06	0.119720458984375
50	0.1220703125	287.93271227304	-6.0943603515625E-06	0.122161865234375
51	0.12451171875	287.957112272978	-5.6640625E-06	0.124603271484375
52	0.126953125	287.981512272917	-4.96826171875E-06	0.12701416015625
53	0.12939453125	288.005912272855	-4.99267578125E-06	0.12945556640625
54	0.1318359375	288.030312272793	-4.28131103515625E-06	0.131866455078125
55	0.13427734375	288.054712272732	-4.25567626953125E-06	0.134368896484375
56	0.13671875	288.07911227267	-3.5174560546875E-06	0.1368408203125
57	0.13916015625	288.103512272609	-3.45489501953125E-06	0.139251708984375
58	0.1416015625	288.127912272547	-2.80029296875E-06	0.141693115234375
59	0.14404296875	288.152312272485	-2.5457763671875E-06	0.144073486328125
60	0.146484375	288.176712272424	-2.63458251953125E-06	0.14654541015625
61	0.14892578125	288.201112272362	-1.9525146484375E-06	0.14898681640625
62	0.1513671875	288.225512272301	-1.8414306640625E-06	0.151397705078125
63	0.15380859375	288.249912272239	-9.99755859375E-07	0.15386962890625
64	0.15625	288.274312272177	-9.7137451171875E-07	0.1563720703125
65	0.15869140625	288.298712272116	-3.94287109375E-07	0.158782958984375
66	0.1611328125	288.323112272054	9.33837890625E-08	0.16119384765625
67	0.16357421875	288.347512271993	2.5177001953125E-07	0.16363525390625
68	0.166015625	288.371912271931	1.0546875E-06	0.165924072265625
69	0.16845703125	288.396312271869	8.1329345703125E-07	0.168304443359375
70	0.1708984375	288.420712271808	1.58538818359375E-06	0.1707763671875
71	0.17333984375	288.445112271746	1.66259765625E-06	0.17291259765625
72	0.17578125	288.469512271684	2.10174560546875E-06	0.175537109375
73	0.17822265625	288.493912271623	2.45452880859375E-06	0.17767333984375
74	0.1806640625	288.518312271561	2.8631591796875E-06	0.18035888671875
75	0.18310546875	288.5427122715	3.480224609375E-06	0.182373046875
76	0.185546875	288.567112271438	3.515625E-06	0.18548583984375
77	0.18798828125	288.591512271376	4.4677734375E-06	0.18792724609375
78	0.1904296875	288.615912271315	4.38995361328125E-06	0.190338134765625
79	0.19287109375	288.640312271253	5.3375244140625E-06	0.192840576171875
80	0.1953125	288.664712271192	5.224609375E-06	0.195159912109375
81	0.19775390625	288.68911227113	5.7830810546875E-06	0.197662353515625
82	0.2001953125	288.713512271068	6.1981201171875E-06	0.2000732421875
83	0.20263671875	288.737912271007	6.402587890625E-06	0.202545166015625
84	0.205078125	288.762312270945	6.8603515625E-06	0.204864501953125
85	0.20751953125	288.786712270884	6.6558837890625E-06	0.2073974609375
86	0.2099609375	288.811112270822	7.8521728515625E-06	0.2098388671875
87	0.21240234375	288.83551227076	7.8887939453125E-06	0.21234130859375
88	0.21484375	288.859912270699	8.59375E-06	0.2147216796875
89	0.21728515625	288.884312270637	8.3282470703125E-06	0.217132568359375
90	0.2197265625	288.908712270576	8.8470458984375E-06	0.219573974609375
91	0.22216796875	288.933112270514	9.8175048828125E-06	0.222015380859375
92	0.224609375	288.957512270452	9.9090576171875E-06	0.224456787109375
93	0.22705078125	288.981912270391	1.05621337890625E-05	0.226898193359375
94	0.2294921875	289.006312270329	1.06597900390625E-05	0.229339599609375
95	0.23193359375	289.030712270268	1.12213134765625E-05	0.23175048828125
96	0.234375	289.055112270206	1.13525390625E-05	0.23419189453125
97	0.23681640625	289.079512270144	1.20330810546875E-05	0.236663818359375
98	0.2392578125	289.103912270083	1.22650146484375E-05	0.239044189453125
99	0.24169921875	289.128312270021	1.25732421875E-05	0.241546630859375
100	0.244140625	289.15271226996	1.33697509765625E-05	0.243927001953125
101	0.24658203125	289.177112269898	1.32568359375E-05	0.24639892578125
102	0.2490234375	289.201512269836	1.4300537109375E-05	0.248809814453125
103	0.25146484375	289.225912269775	1.41326904296875E-05	0.25128173828125
104	0.25390625	289.250312269713	1.4556884765625E-05	0.253662109375
105	0.25634765625	289.274712269652	1.50146484375E-05	0.25604248046875
106	0.2587890625	289.29911226959	1.52618408203125E-05	0.258575439453125
107	0.26123046875	289.323512269528	1.629638671875E-05	0.26092529296875
108	0.263671875	289.347912269467	1.56463623046875E-05	0.263427734375
109	0.26611328125	289.372312269405	1.6717529296875E-05	0.265899658203125
110	0.2685546875	289.396712269344	1.685791015625E-05	0.268280029296875
111	0.27099609375	289.421112269282	1.74774169921875E-05	0.27069091796875
112	0.2734375	289.44551226922	1.80877685546875E-05	0.273162841796875
113	0.27587890625	289.469912269159	1.85882568359375E-05	0.275604248046875
114	0.2783203125	289.494312269097	1.89788818359375E-05	0.278045654296875
115	0.28076171875	289.518712269036	1.8798828125E-05	0.280426025390625
116	0.283203125	289.543112268974	1.9635009765625E-05	0.282867431640625
117	0.28564453125	289.567512268912	1.90338134765625E-05	0.285308837890625
118	0.2880859375	289.591912268851	2.000732421875E-05	0.287750244140625
119	0.29052734375	289.616312268789	2.02850341796875E-05	0.2901611328125
120	0.29296875	289.640712268727	2.07489013671875E-05	0.292633056640625
121	0.29541015625	289.665112268666	2.16644287109375E-05	0.295074462890625
122	0.2978515625	289.689512268604	2.09228515625E-05	0.29742431640625
123	0.30029296875	289.713912268543	2.17926025390625E-05	0.29986572265625
124	0.302734375	289.738312268481	2.2454833984375E-05	0.302276611328125
125	0.30517578125	289.762712268419	2.30255126953125E-05	0.30474853515625
126	0.3076171875	289.787112268358	2.38372802734375E-05	0.307159423828125
127	0.31005859375	289.811512268296	2.37823486328125E-05	0.30963134765625
128	0.3125	289.835912268235	2.35748291015625E-05	0.31201171875
129	0.31494140625	289.860312268173	2.4114990234375E-05	0.314483642578125
130	0.3173828125	289.884712268111	2.48870849609375E-05	0.316925048828125
131	0.31982421875	289.90911226805	2.470703125E-05	0.3193359375
132	0.322265625	289.933512267988	2.57904052734375E-05	0.32171630859375
133	0.32470703125	289.957912267927	2.6165771484375E-05	0.32427978515625
134	0.3271484375	289.982312267865	2.67608642578125E-05	0.32666015625
135	0.32958984375	290.006712267803	2.75115966796875E-05	0.3291015625
136	0.33203125	290.031112267742	2.757568359375E-05	0.331512451171875
137	0.33447265625	290.05551226768	2.89520263671875E-05	0.333892822265625
138	0.3369140625	290.079912267619	2.85858154296875E-05	0.3363037109375
139	0.33935546875	290.104312267557	2.9632568359375E-05	0.3387451171875
140	0.341796875	290.128712267495	2.94158935546875E-05	0.3411865234375
141	0.34423828125	290.153112267434	3.00384521484375E-05	0.343597412109375
142	0.3466796875	290.177512267372	3.04443359375E-05	0.3465576171875
143	0.34912109375	290.201912267311	3.1103515625E-05	0.349090576171875
144	0.3515625	290.226312267249	3.1494140625E-05	0.35150146484375
145	0.35400390625	290.250712267187	3.16741943359375E-05	0.353912353515625
146	0.3564453125	290.275112267126	3.27423095703125E-05	0.35638427734375
147	0.35888671875	290.299512267064	3.27056884765625E-05	0.358795166015625
148	0.361328125	290.323912267003	3.36700439453125E-05	0.361236572265625
149	0.36376953125	290.348312266941	3.349609375E-05	0.363677978515625
150	0.3662109375	290.372712266879	3.404541015625E-05	0.36614990234375
151	0.36865234375	290.397112266818	3.450927734375E-05	0.36859130859375
152	0.37109375	290.421512266756	3.4759521484375E-05	0.37103271484375
153	0.37353515625	290.445912266695	3.53607177734375E-05	0.373443603515625
154	0.3759765625	290.470312266633	3.52691650390625E-05	0.37591552734375
155	0.37841796875	290.494712266571	3.658447265625E-05	0.37835693359375
156	0.380859375	290.51911226651	3.66851806640625E-05	0.38079833984375
157	0.38330078125	290.543512266448	3.7335205078125E-05	0.383270263671875
158	0.3857421875	290.567912266387	3.782958984375E-05	0.38568115234375
159	0.38818359375	290.592312266325	3.80523681640625E-05	0.38812255859375
160	0.390625	290.616712266263	3.8726806640625E-05	0.390533447265625
161	0.39306640625	290.641112266202	3.85467529296875E-05	0.393035888671875
162	0.3955078125	290.66551226614	3.96514892578125E-05	0.395416259765625
163	0.39794921875	290.689912266079	3.975830078125E-05	0.397796630859375
164	0.400390625	290.714312266017	4.10125732421875E-05	0.400299072265625
165	0.40283203125	290.738712265955	4.139404296875E-05	0.402740478515625
166	0.4052734375	290.763112265894	4.20867919921875E-05	0.40521240234375
167	0.40771484375	290.787512265832	4.2181396484375E-05	0.407623291015625
168	0.41015625	290.811912265771	4.28253173828125E-05	0.41009521484375
169	0.41259765625	290.836312265709	4.4073486328125E-05	0.412506103515625
170	0.4150390625	290.860712265647	4.3768310546875E-05	0.4149169921875
171	0.41748046875	290.885112265586	4.4866943359375E-05	0.417449951171875
172	0.419921875	290.909512265524	4.5220947265625E-05	0.419830322265625
173	0.42236328125	290.933912265462	4.615478515625E-05	0.4222412109375
174	0.4248046875	290.958312265401	4.68353271484375E-05	0.424713134765625
175	0.42724609375	290.982712265339	4.74212646484375E-05	0.427154541015625
176	0.4296875	291.007112265278	4.7906494140625E-05	0.429595947265625
177	0.43212890625	291.031512265216	4.853515625E-05	0.431976318359375
178	0.4345703125	291.055912265154	4.9774169921875E-05	0.434478759765625
179	0.43701171875	291.080312265093	5.0323486328125E-05	0.43695068359375
180	0.439453125	291.104712265031	5.072021484375E-05	0.4393310546875
181	0.44189453125	291.12911226497	5.120849609375E-05	0.441802978515625
182	0.4443359375	291.153512264908	5.1483154296875E-05	0.4442138671875
183	0.44677734375	291.177912264846	5.2764892578125E-05	0.4466552734375
184	0.44921875	291.202312264785	5.28564453125E-05	0.449127197265625
185	0.45166015625	291.226712264723	5.377197265625E-05	0.451507568359375
186	0.4541015625	291.251112264662	5.4290771484375E-05	0.453948974609375
187	0.45654296875	291.2755122646	5.499267578125E-05	0.4564208984375
188	0.458984375	291.299912264538	5.5694580078125E-05	0.458831787109375
189	0.46142578125	291.324312264477	5.6793212890625E-05	0.461273193359375
190	0.4638671875	291.348712264415	5.8013916015625E-05	0.46368408203125
191	0.46630859375	291.373112264354	5.8685302734375E-05	0.46612548828125
192	0.46875	291.397512264292	5.963134765625E-05	0.468597412109375
193	0.47119140625	291.42191226423	5.9600830078125E-05	0.4710693359375
194	0.4736328125	291.446312264169	6.0577392578125E-05	0.4735107421875
195	0.47607421875	291.470712264107	6.072998046875E-05	0.475982666015625
196	0.478515625	291.495112264046	6.2469482421875E-05	0.47833251953125
197	0.48095703125	291.519512263984	6.280517578125E-05	0.4808349609375
198	0.4833984375	291.543912263922	6.414794921875E-05	0.4832763671875
199	0.48583984375	291.568312263861	6.4727783203125E-05	0.485687255859375
200	0.48828125	291.592712263799	6.549072265625E-05	0.488128662109375
201	0.49072265625	291.617112263738	6.695556640625E-05	0.490570068359375
202	0.4931640625	291.641512263676	6.8450927734375E-05	0.4930419921875
203	0.49560546875	291.665912263614	6.9732666015625E-05	0.495452880859375
204	0.498046875	291.690312263553	6.976318359375E-05	0.4979248046875
205	0.50048828125	291.714712263491	7.0526123046875E-05	0.500335693359375
206	0.5029296875	291.73911226343	7.232666015625E-05	0.50274658203125
207	0.50537109375	291.763512263368	7.33642578125E-05	0.5052490234375
208	0.5078125	291.787912263306	7.48291015625E-05	0.5076904296875
209	0.51025390625	291.812312263245	7.58056640625E-05	0.510101318359375
210	0.5126953125	291.836712263183	7.7392578125E-05	0.51251220703125
211	0.51513671875	291.861112263122	7.9132080078125E-05	0.51495361328125
212	0.517578125	291.88551226306	8.099365234375E-05	0.517364501953125
213	0.52001953125	291.909912262998	8.1878662109375E-05	0.519805908203125
214	0.5224609375	291.934312262937	8.2794189453125E-05	0.5223388671875
215	0.52490234375	291.958712262875	8.5662841796875E-05	0.52471923828125
216	0.52734375	291.983112262814	8.660888671875E-05	0.527130126953125
217	0.52978515625	292.007512262752	8.7646484375E-05	0.5296630859375
218	0.5322265625	292.03191226269	8.9874267578125E-05	0.532012939453125
219	0.53466796875	292.056312262629	8.9752197265625E-05	0.534454345703125
220	0.537109375	292.080712262567	9.2498779296875E-05	0.53692626953125
221	0.53955078125	292.105112262505	9.31396484375E-05	0.53936767578125
222	0.5419921875	292.129512262444	9.515380859375E-05	0.541839599609375
223	0.54443359375	292.153912262382	9.6923828125E-05	0.544219970703125
224	0.546875	292.178312262321	0.00010028076171875	0.546722412109375
225	0.54931640625	292.202712262259	0.000100799560546875	0.549102783203125
226	0.5517578125	292.227112262197	0.000102752685546875	0.551513671875
227	0.55419921875	292.251512262136	0.00010491943359375	0.553955078125
228	0.556640625	292.275912262074	0.000106475830078125	0.556488037109375
229	0.55908203125	292.300312262013	0.00010919189453125	0.558807373046875
230	0.5615234375	292.324712261951	0.000111114501953125	0.561279296875
231	0.56396484375	292.349112261889	0.000113433837890625	0.563751220703125
232	0.56640625	292.373512261828	0.00011712646484375	0.566162109375
233	0.56884765625	292.397912261766	0.000118896484375	0.568572998046875
234	0.5712890625	292.422312261705	0.000120849609375	0.571014404296875
235	0.57373046875	292.446712261643	0.000123260498046875	0.573455810546875
236	0.576171875	292.471112261581	0.0001259765625	0.575897216796875
237	0.57861328125	292.49551226152	0.000128265380859375	0.57830810546875
238	0.5810546875	292.519912261458	0.000131988525390625	0.5806884765625
239	0.58349609375	292.544312261397	0.000134552001953125	0.583221435546875
240	0.5859375	292.568712261335	0.00013824462890625	0.58563232421875
241	0.58837890625	292.593112261273	0.000141845703125	0.588043212890625
242	0.5908203125	292.617512261212	0.000144775390625	0.5904541015625
243	0.59326171875	292.64191226115	0.000147857666015625	0.592926025390625
244	0.595703125	292.666312261089	0.00015118408203125	0.595367431640625
245	0.59814453125	292.690712261027	0.000155242919921875	0.597808837890625
246	0.6005859375	292.715112260965	0.000158660888671875	0.600250244140625
247	0.60302734375	292.739512260904	0.00016229248046875	0.602630615234375
248	0.60546875	292.763912260842	0.00016693115234375	0.6051025390625
249	0.60791015625	292.788312260781	0.000172119140625	0.60748291015625
250	0.6103515625	292.812712260719	0.000176361083984375	0.609893798828125
251	0.61279296875	292.837112260657	0.00018072509765625	0.612396240234375
252	0.615234375	292.861512260596	0.00018603515625	0.614776611328125
253	0.61767578125	292.885912260534	0.00019000244140625	0.61724853515625
254	0.6201171875	292.910312260473	0.00019512939453125	0.61962890625
255	0.62255859375	292.934712260411	0.000200347900390625	0.6220703125
256	0.625	292.959112260349	0.000206329345703125	0.624481201171875
257	0.62744140625	292.983512260288	0.000210845947265625	0.62689208984375
258	0.6298828125	293.007912260226	0.0002171630859375	0.62933349609375
259	0.63232421875	293.032312260165	0.00022381591796875	0.63177490234375
260	0.634765625	293.056712260103	0.000228515625	0.63421630859375
261	0.63720703125	293.081112260041	0.0002354736328125	0.636566162109375
262	0.6396484375	293.10551225998	0.000241180419921875	0.63909912109375
263	0.64208984375	293.129912259918	0.000248779296875	0.641510009765625
264	0.64453125	293.154312259857	0.00025518798828125	0.64385986328125
265	0.64697265625	293.178712259795	0.00026226806640625	0.64630126953125
266	0.6494140625	293.203112259733	0.000268798828125	0.648773193359375
267	0.65185546875	293.227512259672	0.000276702880859375	0.651153564453125
268	0.654296875	293.25191225961	0.000285491943359375	0.65350341796875
269	0.65673828125	293.276312259548	0.00029327392578125	0.655975341796875
270	0.6591796875	293.300712259487	0.0003017578125	0.658355712890625
271	0.66162109375	293.325112259425	0.000311431884765625	0.66143798828125
272	0.6640625	293.349512259364	0.000320068359375	0.663909912109375
273	0.66650390625	293.373912259302	0.000329925537109375	0.666351318359375
274	0.6689453125	293.39831225924	0.000339935302734375	0.66876220703125
275	0.67138671875	293.422712259179	0.000350341796875	0.67120361328125
276	0.673828125	293.447112259117	0.000359588623046875	0.673614501953125
277	0.67626953125	293.471512259056	0.000370269775390625	0.676116943359375
278	0.6787109375	293.495912258994	0.000380584716796875	0.67852783203125
279	0.68115234375	293.520312258932	0.000392425537109375	0.68096923828125
280	0.68359375	293.544712258871	0.000403594970703125	0.683380126953125
281	0.68603515625	293.569112258809	0.000416351318359375	0.68585205078125
282	0.6884765625	293.593512258748	0.00042767333984375	0.688232421875
283	0.69091796875	293.617912258686	0.000440704345703125	0.690673828125
284	0.693359375	293.642312258624	0.00045404052734375	0.693115234375
285	0.69580078125	293.666712258563	0.000467132568359375	0.695587158203125
286	0.6982421875	293.691112258501	0.00048114013671875	0.698028564453125
287	0.70068359375	293.71551225844	0.0004949951171875	0.700469970703125
288	0.703125	293.739912258378	0.000509033203125	0.702911376953125
289	0.70556640625	293.764312258316	0.00052398681640625	0.705291748046875
290	0.7080078125	293.788712258255	0.00053955078125	0.707794189453125
291	0.71044921875	293.813112258193	0.0005548095703125	0.710235595703125
292	0.712890625	293.837512258132	0.00057098388671875	0.712615966796875
293	0.71533203125	293.86191225807	0.00058746337890625	0.71514892578125
294	0.7177734375	293.886312258008	0.000604248046875	0.717498779296875
295	0.72021484375	293.910712257947	0.00062225341796875	0.720001220703125
296	0.72265625	293.935112257885	0.00063934326171875	0.722442626953125
297	0.72509765625	293.959512257824	0.000657958984375	0.724853515625
298	0.7275390625	293.983912257762	0.00067596435546875	0.72723388671875
299	0.72998046875	294.0083122577	0.0006951904296875	0.729736328125
300	0.732421875	294.032712257639	0.0007147216796875	0.732147216796875
301	0.73486328125	294.057112257577	0.0007342529296875	0.734619140625
302	0.7373046875	294.081512257516	0.000755615234375	0.736968994140625
303	0.73974609375	294.105912257454	0.00077606201171875	0.73944091796875
304	0.7421875	294.130312257392	0.00079681396484375	0.741912841796875
305	0.74462890625	294.154712257331	0.000819091796875	0.744293212890625
306	0.7470703125	294.179112257269	0.00084259033203125	0.746734619140625
307	0.74951171875	294.203512257208	0.0008648681640625	0.749237060546875
308	0.751953125	294.227912257146	0.0008868408203125	0.7513427734375
309	0.75439453125	294.252312257084	0.0009112548828125	0.7537841796875
310	0.7568359375	294.276712257023	0.00093536376953125	0.75653076171875
311	0.75927734375	294.301112256961	0.00096099853515625	0.75836181640625
312	0.76171875	294.3255122569	0.00098480224609375	0.76141357421875
313	0.76416015625	294.349912256838	0.0010107421875	0.76324462890625
314	0.7666015625	294.374312256776	0.001036376953125	0.76629638671875
315	0.76904296875	294.398712256715	0.0010638427734375	0.7684326171875
316	0.771484375	294.423112256653	0.0010894775390625	0.7708740234375
317	0.77392578125	294.447512256591	0.00111724853515625	0.7733154296875
318	0.7763671875	294.47191225653	0.00114593505859375	0.775146484375
319	0.77880859375	294.496312256468	0.00117218017578125	0.77850341796875
320	0.78125	294.520712256407	0.00120269775390625	0.7806396484375
321	0.78369140625	294.545112256345	0.00123046875	0.78277587890625
322	0.7861328125	294.569512256283	0.00126129150390625	0.7855224609375
323	0.78857421875	294.593912256222	0.00129058837890625	0.787353515625
324	0.791015625	294.61831225616	0.00132171630859375	0.79010009765625
325	0.79345703125	294.642712256099	0.0013531494140625	0.79254150390625
326	0.7958984375	294.667112256037	0.00138275146484375	0.794677734375
327	0.79833984375	294.691512255975	0.0014154052734375	0.79742431640625
328	0.80078125	294.715912255914	0.0014471435546875	0.80047607421875
329	0.80322265625	294.740312255852	0.0014813232421875	0.80230712890625
330	0.8056640625	294.764712255791	0.00151458740234375	0.80474853515625
331	0.80810546875	294.789112255729	0.0015484619140625	0.80718994140625
332	0.810546875	294.813512255667	0.001583251953125	0.80963134765625
333	0.81298828125	294.837912255606	0.00161651611328125	0.8123779296875
334	0.8154296875	294.862312255544	0.00165191650390625	0.8148193359375
335	0.81787109375	294.886712255483	0.00168670654296875	0.8172607421875
336	0.8203125	294.911112255421	0.00172271728515625	0.8203125
337	0.82275390625	294.935512255359	0.00175933837890625	0.8221435546875
338	0.8251953125	294.959912255298	0.00179656982421875	0.823974609375
339	0.82763671875	294.984312255236	0.00183380126953125	0.82672119140625
340	0.830078125	295.008712255175	0.0018707275390625	0.8294677734375
341	0.83251953125	295.033112255113	0.00190948486328125	0.8319091796875
342	0.8349609375	295.057512255051	0.00194732666015625	0.83465576171875
343	0.83740234375	295.08191225499	0.00198760986328125	0.8367919921875
344	0.83984375	295.106312254928	0.00202545166015625	0.8392333984375
345	0.84228515625	295.130712254867	0.0020648193359375	0.84197998046875
346	0.8447265625	295.155112254805	0.0021051025390625	0.84442138671875
347	0.84716796875	295.179512254743	0.0021453857421875	0.84625244140625
348	0.849609375	295.203912254682	0.00218658447265625	0.8489990234375
349	0.85205078125	295.22831225462	0.00222625732421875	0.850830078125
350	0.8544921875	295.252712254559	0.00226898193359375	0.85418701171875
351	0.85693359375	295.277112254497	0.00231048583984375	0.85601806640625
352	0.859375	295.301512254435	0.00235321044921875	0.85845947265625
353	0.86181640625	295.325912254374	0.0023956298828125	0.86090087890625
354	0.8642578125	295.350312254312	0.00243896484375	0.86334228515625
355	0.86669921875	295.374712254251	0.0024835205078125	0.8660888671875
356	0.869140625	295.399112254189	0.0025262451171875	0.867919921875
357	0.87158203125	295.423512254127	0.00257049560546875	0.87066650390625
358	0.8740234375	295.447912254066	0.00261322021484375	0.87310791015625
359	0.87646484375	295.472312254004	0.00265899658203125	0.87554931640625
360	0.87890625	295.496712253943	0.00270416259765625	0.87799072265625
361	0.88134765625	295.521112253881	0.0027496337890625	0.8807373046875
362	0.8837890625	295.545512253819	0.00279541015625	0.8831787109375
363	0.88623046875	295.569912253758	0.00284088134765625	0.8856201171875
364	0.888671875	295.594312253696	0.00288818359375	0.8880615234375
365	0.89111328125	295.618712253634	0.00293365478515625	0.889892578125
366	0.8935546875	295.643112253573	0.002982177734375	0.8929443359375
367	0.89599609375	295.667512253511	0.00302825927734375	0.89508056640625
368	0.8984375	295.69191225345	0.00307586669921875	0.89752197265625
369	0.90087890625	295.716312253388	0.00312469482421875	0.89996337890625
370	0.9033203125	295.740712253326	0.00317230224609375	0.9027099609375
371	0.90576171875	295.765112253265	0.0032220458984375	0.90484619140625
372	0.908203125	295.789512253203	0.00326904296875	0.9075927734375
373	0.91064453125	295.813912253142	0.00331878662109375	0.90972900390625
374	0.9130859375	295.83831225308	0.00336700439453125	0.91217041015625
375	0.91552734375	295.862712253018	0.00341705322265625	0.91461181640625
376	0.91796875	295.887112252957	0.00346588134765625	0.9173583984375
377	0.92041015625	295.911512252895	0.0035150146484375	0.91949462890625
378	0.9228515625	295.935912252834	0.00356536865234375	0.9222412109375
379	0.92529296875	295.960312252772	0.00361358642578125	0.9246826171875
380	0.927734375	295.98471225271	0.0036639404296875	0.92742919921875
381	0.93017578125	296.009112252649	0.0037109375	0.92926025390625
382	0.9326171875	296.033512252587	0.00376129150390625	0.93170166015625
383	0.93505859375	296.057912252526	0.00380950927734375	0.93414306640625
384	0.9375	296.082312252464	0.00385833740234375	0.93658447265625
385	0.93994140625	296.106712252402	0.00390625	0.93963623046875
386	0.9423828125	296.131112252341	0.00395263671875	0.94146728515625
387	0.94482421875	296.155512252279	0.00400054931640625	0.94390869140625
388	0.947265625	296.179912252218	0.00404541015625	0.94635009765625
389	0.94970703125	296.204312252156	0.00409149169921875	0.94940185546875
390	0.9521484375	296.228712252094	0.004134521484375	0.95123291015625
391	0.95458984375	296.253112252033	0.00417755126953125	0.95367431640625
392	0.95703125	296.277512251971	0.00422027587890625	0.95611572265625
393	0.95947265625	296.30191225191	0.0042608642578125	0.95855712890625
394	0.9619140625	296.326312251848	0.0043017578125	0.960693359375
395	0.96435546875	296.350712251786	0.004339599609375	0.96343994140625
396	0.966796875	296.375112251725	0.00437774658203125	0.96588134765625
397	0.96923828125	296.399512251663	0.00441375732421875	0.96832275390625
398	0.9716796875	296.423912251602	0.0044500732421875	0.9710693359375
399	0.97412109375	296.44831225154	0.00448394775390625	0.972900390625
400	0.9765625	296.472712251478	0.00451690673828125	0.97564697265625
401	0.97900390625	296.497112251417	0.004549560546875	0.97808837890625
402	0.9814453125	296.521512251355	0.00458038330078125	0.9808349609375
403	0.98388671875	296.545912251294	0.0046112060546875	0.98297119140625
404	0.986328125	296.570312251232	0.0046392822265625	0.98541259765625
405	0.98876953125	296.59471225117	0.00466827392578125	0.98785400390625
406	0.9912109375	296.619112251109	0.00469573974609375	0.99029541015625
407	0.99365234375	296.643512251047	0.00472198486328125	0.99273681640625
408	0.99609375	296.667912250986	0.0047479248046875	0.99517822265625
409	0.99853515625	296.692312250924	0.0047723388671875	0.99761962890625
410	1.0009765625	296.716712250862	0.00479705810546875	1.00006103515625
411	1.00341796875	296.741112250801	0.004820556640625	1.0028076171875
412	1.005859375	296.765512250739	0.00484375	1.00494384765625
413	1.00830078125	296.789912250678	0.00486541748046875	1.0076904296875
414	1.0107421875	296.814312250616	0.00488739013671875	1.00982666015625
415	1.01318359375	296.838712250554	0.00490875244140625	1.0125732421875
416	1.015625	296.863112250493	0.00492919921875	1.01470947265625
417	1.01806640625	296.887512250431	0.00494964599609375	1.016845703125
418	1.0205078125	296.911912250369	0.00496856689453125	1.019287109375
419	1.02294921875	296.936312250308	0.00498809814453125	1.02203369140625
420	1.025390625	296.960712250246	0.00500640869140625	1.0247802734375
421	1.02783203125	296.985112250185	0.0050250244140625	1.02691650390625
422	1.0302734375	297.009512250123	0.005042724609375	1.02996826171875
423	1.03271484375	297.033912250061	0.00506011962890625	1.0321044921875
424	1.03515625	297.05831225	0.0050775146484375	1.03424072265625
425	1.03759765625	297.082712249938	0.00509429931640625	1.036376953125
426	1.0400390625	297.107112249877	0.005111083984375	1.03851318359375
427	1.04248046875	297.131512249815	0.00512664794921875	1.04095458984375
428	1.044921875	297.155912249753	0.00514251708984375	1.04400634765625
429	1.04736328125	297.180312249692	0.0051580810546875	1.0467529296875
430	1.0498046875	297.20471224963	0.00517333984375	1.0491943359375
431	1.05224609375	297.229112249569	0.00518829345703125	1.05133056640625
432	1.0546875	297.253512249507	0.00520263671875	1.0540771484375
433	1.05712890625	297.277912249445	0.00521759033203125	1.0565185546875
434	1.0595703125	297.302312249384	0.00523162841796875	1.058349609375
435	1.06201171875	297.326712249322	0.00524566650390625	1.06109619140625
436	1.064453125	297.351112249261	0.00525909423828125	1.063232421875
437	1.06689453125	297.375512249199	0.0052728271484375	1.06597900390625
438	1.0693359375	297.399912249137	0.0052862548828125	1.068115234375
439	1.07177734375	297.424312249076	0.005299072265625	1.07086181640625
440	1.07421875	297.448712249014	0.00531219482421875	1.072998046875
441	1.07666015625	297.473112248953	0.00532470703125	1.07513427734375
442	1.0791015625	297.497512248891	0.0053375244140625	1.07818603515625
443	1.08154296875	297.521912248829	0.0053497314453125	1.08062744140625
444	1.083984375	297.546312248768	0.0053619384765625	1.08306884765625
445	1.08642578125	297.570712248706	0.00537384033203125	1.08551025390625
446	1.0888671875	297.595112248645	0.0053857421875	1.08795166015625
447	1.09130859375	297.619512248583	0.00539764404296875	1.09039306640625
448	1.09375	297.643912248521	0.005408935546875	1.09283447265625
449	1.09619140625	297.66831224846	0.0054205322265625	1.09527587890625
450	1.0986328125	297.692712248398	0.0054315185546875	1.09710693359375
451	1.10107421875	297.717112248337	0.0054425048828125	1.10015869140625
452	1.103515625	297.741512248275	0.0054534912109375	1.10260009765625
453	1.10595703125	297.765912248213	0.00546417236328125	1.10504150390625
454	1.1083984375	297.790312248152	0.005474853515625	1.10748291015625
455	1.11083984375	297.81471224809	0.0054852294921875	1.10992431640625
456	1.11328125	297.839112248029	0.00549591064453125	1.11236572265625
457	1.11572265625	297.863512247967	0.0055059814453125	1.11419677734375
458	1.1181640625	297.887912247905	0.005516357421875	1.116943359375
459	1.12060546875	297.912312247844	0.00552642822265625	1.11907958984375
460	1.123046875	297.936712247782	0.00553619384765625	1.12213134765625
461	1.12548828125	297.961112247721	0.0055462646484375	1.12457275390625
462	1.1279296875	297.985512247659	0.00555572509765625	1.1273193359375
463	1.13037109375	298.009912247597	0.00556549072265625	1.129150390625
464	1.1328125	298.034312247536	0.005574951171875	1.13128662109375
465	1.13525390625	298.058712247474	0.00558441162109375	1.134033203125
466	1.1376953125	298.083112247412	0.0055938720703125	1.136474609375
467	1.14013671875	298.107512247351	0.00560333251953125	1.13861083984375
468	1.142578125	298.131912247289	0.0056121826171875	1.141357421875
469	1.14501953125	298.156312247228	0.005621337890625	1.14410400390625
470	1.1474609375	298.180712247166	0.0056304931640625	1.14654541015625
471	1.14990234375	298.205112247104	0.0056390380859375	1.14898681640625
472	1.15234375	298.229512247043	0.005648193359375	1.151123046875
473	1.15478515625	298.253912246981	0.00565673828125	1.153564453125
474	1.1572265625	298.27831224692	0.00566558837890625	1.15570068359375
475	1.15966796875	298.302712246858	0.00567413330078125	1.15875244140625
476	1.162109375	298.327112246796	0.00568267822265625	1.160888671875
477	1.16455078125	298.351512246735	0.00569122314453125	1.16363525390625
478	1.1669921875	298.375912246673	0.005699462890625	1.165771484375
479	1.16943359375	298.400312246612	0.00570770263671875	1.168212890625
480	1.171875	298.42471224655	0.0057159423828125	1.1712646484375
481	1.17431640625	298.449112246488	0.00572418212890625	1.17279052734375
482	1.1767578125	298.473512246427	0.00573211669921875	1.17584228515625
483	1.17919921875	298.497912246365	0.00574005126953125	1.177978515625
484	1.181640625	298.522312246304	0.005748291015625	1.180419921875
485	1.18408203125	298.546712246242	0.00575592041015625	1.18316650390625
486	1.1865234375	298.57111224618	0.00576385498046875	1.185302734375
487	1.18896484375	298.595512246119	0.005771484375	1.18804931640625
488	1.19140625	298.619912246057	0.0057794189453125	1.1907958984375
489	1.19384765625	298.644312245996	0.00578704833984375	1.19293212890625
490	1.1962890625	298.668712245934	0.00579437255859375	1.195068359375
491	1.19873046875	298.693112245872	0.005802001953125	1.19781494140625
492	1.201171875	298.717512245811	0.005809326171875	1.199951171875
493	1.19873046875	298.741912245749	0.00579681396484375	1.1981201171875
494	1.1962890625	298.766312245688	0.00578369140625	1.195068359375
495	1.19384765625	298.790712245626	0.00577117919921875	1.19293212890625
496	1.19140625	298.815112245564	0.00575775146484375	1.190185546875
497	1.18896484375	298.839512245503	0.00574432373046875	1.18804931640625
498	1.1865234375	298.863912245441	0.00573089599609375	1.185302734375
499	1.18408203125	298.88831224538	0.0057171630859375	1.18316650390625
500	1.181640625	298.912712245318	0.00570343017578125	1.180419921875
501	1.17919921875	298.937112245256	0.00568939208984375	1.17828369140625
502	1.1767578125	298.961512245195	0.00567535400390625	1.1761474609375
503	1.17431640625	298.985912245133	0.0056610107421875	1.173095703125
504	1.171875	299.010312245072	0.00564666748046875	1.17095947265625
505	1.16943359375	299.03471224501	0.0056317138671875	1.16851806640625
506	1.1669921875	299.059112244948	0.00561676025390625	1.16546630859375
507	1.16455078125	299.083512244887	0.005601806640625	1.16363525390625
508	1.162109375	299.107912244825	0.00558624267578125	1.16058349609375
509	1.15966796875	299.132312244764	0.0055706787109375	1.1590576171875
510	1.1572265625	299.156712244702	0.00555450439453125	1.1566162109375
511	1.15478515625	299.18111224464	0.005538330078125	1.15386962890625
512	1.15234375	299.205512244579	0.00552215576171875	1.151123046875
513	1.14990234375	299.229912244517	0.00550537109375	1.148681640625
514	1.1474609375	299.254312244455	0.00548828125	1.146240234375
515	1.14501953125	299.278712244394	0.00547088623046875	1.143798828125
516	1.142578125	299.303112244332	0.00545318603515625	1.14105224609375
517	1.14013671875	299.327512244271	0.0054351806640625	1.13922119140625
518	1.1376953125	299.351912244209	0.00541717529296875	1.1370849609375
519	1.13525390625	299.376312244147	0.00539825439453125	1.134033203125
520	1.1328125	299.400712244086	0.00537933349609375	1.1322021484375
521	1.13037109375	299.425112244024	0.00535980224609375	1.129150390625
522	1.1279296875	299.449512243963	0.0053399658203125	1.12640380859375
523	1.12548828125	299.473912243901	0.00531951904296875	1.12457275390625
524	1.123046875	299.498312243839	0.0052984619140625	1.12213134765625
525	1.12060546875	299.522712243778	0.00527740478515625	1.1199951171875
526	1.1181640625	299.547112243716	0.0052557373046875	1.1175537109375
527	1.11572265625	299.571512243655	0.00523345947265625	1.1151123046875
528	1.11328125	299.595912243593	0.0052105712890625	1.112060546875
529	1.11083984375	299.620312243531	0.00518707275390625	1.10992431640625
530	1.1083984375	299.64471224347	0.0051629638671875	1.107177734375
531	1.10595703125	299.669112243408	0.00513824462890625	1.10443115234375
532	1.103515625	299.693512243347	0.0051129150390625	1.102294921875
533	1.10107421875	299.717912243285	0.00508636474609375	1.10015869140625
534	1.0986328125	299.742312243223	0.00505950927734375	1.09771728515625
535	1.09619140625	299.766712243162	0.00503143310546875	1.094970703125
536	1.09375	299.7911122431	0.00500244140625	1.092529296875
537	1.09130859375	299.815512243039	0.00497283935546875	1.090087890625
538	1.0888671875	299.839912242977	0.00494171142578125	1.08795166015625
539	1.08642578125	299.864312242915	0.00490966796875	1.08551025390625
540	1.083984375	299.888712242854	0.0048760986328125	1.08245849609375
541	1.08154296875	299.913112242792	0.0048419189453125	1.080322265625
542	1.0791015625	299.937512242731	0.0048052978515625	1.077880859375
543	1.07666015625	299.961912242669	0.0047674560546875	1.07574462890625
544	1.07421875	299.986312242607	0.0047283935546875	1.07330322265625
545	1.07177734375	300.010712242546	0.0046868896484375	1.07086181640625
546	1.0693359375	300.035112242484	0.00464385986328125	1.0687255859375
547	1.06689453125	300.059512242423	0.004598388671875	1.06597900390625
548	1.064453125	300.083912242361	0.0045513916015625	1.06353759765625
549	1.06201171875	300.108312242299	0.00450164794921875	1.060791015625
550	1.0595703125	300.132712242238	0.0044500732421875	1.05804443359375
551	1.05712890625	300.157112242176	0.00439483642578125	1.05682373046875
552	1.0546875	300.181512242115	0.00433746337890625	1.0540771484375
553	1.05224609375	300.205912242053	0.00427825927734375	1.051025390625
554	1.0498046875	300.230312241991	0.0042156982421875	1.0491943359375
555	1.04736328125	300.25471224193	0.00415191650390625	1.046142578125
556	1.044921875	300.279112241868	0.0040838623046875	1.0443115234375
557	1.04248046875	300.303512241807	0.0040167236328125	1.041259765625
558	1.0400390625	300.327912241745	0.0039471435546875	1.0394287109375
559	1.03759765625	300.352312241683	0.00387664794921875	1.03668212890625
560	1.03515625	300.376712241622	0.00380523681640625	1.033935546875
561	1.03271484375	300.40111224156	0.00373199462890625	1.03179931640625
562	1.0302734375	300.425512241498	0.00366058349609375	1.02935791015625
563	1.02783203125	300.449912241437	0.003587646484375	1.02691650390625
564	1.025390625	300.474312241375	0.00351593017578125	1.0247802734375
565	1.02294921875	300.498712241314	0.003443603515625	1.02203369140625
566	1.0205078125	300.523112241252	0.0033721923828125	1.01898193359375
567	1.01806640625	300.54751224119	0.00330169677734375	1.01715087890625
568	1.015625	300.571912241129	0.0032318115234375	1.014404296875
569	1.01318359375	300.596312241067	0.003162841796875	1.01226806640625
570	1.0107421875	300.620712241006	0.0030938720703125	1.00982666015625
571	1.00830078125	300.645112240944	0.00302642822265625	1.0076904296875
572	1.005859375	300.669512240882	0.00295928955078125	1.004638671875
573	1.00341796875	300.693912240821	0.0028936767578125	1.0028076171875
574	1.0009765625	300.718312240759	0.0028289794921875	1.0003662109375
575	0.99853515625	300.742712240698	0.0027655029296875	0.99761962890625
576	0.99609375	300.767112240636	0.00270294189453125	0.9954833984375
577	0.99365234375	300.791512240574	0.002640380859375	0.9930419921875
578	0.9912109375	300.815912240513	0.0025799560546875	0.99029541015625
579	0.98876953125	300.840312240451	0.00251953125	0.98785400390625
580	0.986328125	300.86471224039	0.0024615478515625	0.98541259765625
581	0.98388671875	300.889112240328	0.00240325927734375	0.98297119140625
582	0.9814453125	300.913512240266	0.00234710693359375	0.98052978515625
583	0.97900390625	300.937912240205	0.00229156494140625	0.97808837890625
584	0.9765625	300.962312240143	0.002236328125	0.975341796875
585	0.97412109375	300.986712240082	0.00218292236328125	0.9735107421875
586	0.9716796875	301.01111224002	0.002130126953125	0.97076416015625
587	0.96923828125	301.035512239958	0.002078857421875	0.96893310546875
588	0.966796875	301.059912239897	0.002027587890625	0.965576171875
589	0.96435546875	301.084312239835	0.001978759765625	0.96343994140625
590	0.9619140625	301.108712239774	0.00193115234375	0.9613037109375
591	0.95947265625	301.133112239712	0.00188385009765625	0.9588623046875
592	0.95703125	301.15751223965	0.00183807373046875	0.95672607421875
593	0.95458984375	301.181912239589	0.0017926025390625	0.9539794921875
594	0.9521484375	301.206312239527	0.00174957275390625	0.9515380859375
595	0.94970703125	301.230712239466	0.0017071533203125	0.94879150390625
596	0.947265625	301.255112239404	0.00166534423828125	0.946044921875
597	0.94482421875	301.279512239342	0.00162353515625	0.94390869140625
598	0.9423828125	301.303912239281	0.00158355712890625	0.94146728515625
599	0.93994140625	301.328312239219	0.0015447998046875	0.938720703125
600	0.9375	301.352712239158	0.0015057373046875	0.93597412109375
601	0.93505859375	301.377112239096	0.00146881103515625	0.93353271484375
602	0.9326171875	301.401512239034	0.0014324951171875	0.931396484375
603	0.93017578125	301.425912238973	0.001397705078125	0.92926025390625
604	0.927734375	301.450312238911	0.00136444091796875	0.926513671875
605	0.92529296875	301.47471223885	0.0013311767578125	0.92437744140625
606	0.9228515625	301.499112238788	0.00129974365234375	0.92193603515625
607	0.92041015625	301.523512238726	0.0012677001953125	0.91949462890625
608	0.91796875	301.547912238665	0.00123748779296875	0.91705322265625
609	0.91552734375	301.572312238603	0.00120819091796875	0.9149169921875
610	0.9130859375	301.596712238541	0.0011785888671875	0.91217041015625
611	0.91064453125	301.62111223848	0.00115142822265625	0.909423828125
612	0.908203125	301.645512238418	0.00112396240234375	0.906982421875
613	0.90576171875	301.669912238357	0.0010968017578125	0.90484619140625
614	0.9033203125	301.694312238295	0.00107177734375	0.9027099609375
615	0.90087890625	301.718712238233	0.0010479736328125	0.899658203125
616	0.8984375	301.743112238172	0.00102264404296875	0.89752197265625
617	0.89599609375	301.76751223811	0.00099884033203125	0.894775390625
618	0.8935546875	301.791912238049	0.00097747802734375	0.892333984375
619	0.89111328125	301.816312237987	0.000955810546875	0.889892578125
620	0.888671875	301.840712237925	0.0009332275390625	0.88775634765625
621	0.88623046875	301.865112237864	0.00091400146484375	0.88531494140625
622	0.8837890625	301.889512237802	0.0008935546875	0.88287353515625
623	0.88134765625	301.913912237741	0.00087310791015625	0.88043212890625
624	0.87890625	301.938312237679	0.0008544921875	0.8782958984375
625	0.87646484375	301.962712237617	0.0008367919921875	0.875244140625
626	0.8740234375	301.987112237556	0.000819091796875	0.8734130859375
627	0.87158203125	302.011512237494	0.00080078125	0.87127685546875
628	0.869140625	302.035912237433	0.0007843017578125	0.867919921875
629	0.86669921875	302.060312237371	0.00076904296875	0.865478515625
630	0.8642578125	302.084712237309	0.00075347900390625	0.86334228515625
631	0.86181640625	302.109112237248	0.0007391357421875	0.86090087890625
632	0.859375	302.133512237186	0.00072265625	0.8587646484375
633	0.85693359375	302.157912237125	0.0007080078125	0.8563232421875
634	0.8544921875	302.182312237063	0.0006939697265625	0.853271484375
635	0.85205078125	302.206712237001	0.0006793212890625	0.850830078125
636	0.849609375	302.23111223694	0.00066650390625	0.84930419921875
637	0.84716796875	302.255512236878	0.00065399169921875	0.845947265625
638	0.8447265625	302.279912236817	0.00064117431640625	0.84381103515625
639	0.84228515625	302.304312236755	0.0006292724609375	0.84197998046875
640	0.83984375	302.328712236693	0.00061737060546875	0.83892822265625
641	0.83740234375	302.353112236632	0.0006060791015625	0.8367919921875
642	0.8349609375	302.37751223657	0.00059417724609375	0.8343505859375
643	0.83251953125	302.401912236509	0.00058197021484375	0.83160400390625
644	0.830078125	302.426312236447	0.00057159423828125	0.8294677734375
645	0.82763671875	302.450712236385	0.00056060791015625	0.82733154296875
646	0.8251953125	302.475112236324	0.0005499267578125	0.8245849609375
647	0.82275390625	302.499512236262	0.00053985595703125	0.8221435546875
648	0.8203125	302.523912236201	0.00052947998046875	0.81939697265625
649	0.81787109375	302.548312236139	0.00051971435546875	0.81695556640625
650	0.8154296875	302.572712236077	0.00051025390625	0.81451416015625
651	0.81298828125	302.597112236016	0.00050048828125	0.81207275390625
652	0.810546875	302.621512235954	0.000490264892578125	0.80963134765625
653	0.80810546875	302.645912235893	0.000481964111328125	0.80718994140625
654	0.8056640625	302.670312235831	0.000473602294921875	0.80474853515625
655	0.80322265625	302.694712235769	0.000465423583984375	0.80230712890625
656	0.80078125	302.719112235708	0.00045709228515625	0.79986572265625
657	0.79833984375	302.743512235646	0.000448486328125	0.7977294921875
658	0.7958984375	302.767912235585	0.0004405517578125	0.7952880859375
659	0.79345703125	302.792312235523	0.00043267822265625	0.79193115234375
660	0.791015625	302.816712235461	0.000424407958984375	0.79071044921875
661	0.78857421875	302.8411122354	0.000417388916015625	0.78765869140625
662	0.7861328125	302.865512235338	0.00041015625	0.78521728515625
663	0.78369140625	302.889912235276	0.000403167724609375	0.78277587890625
664	0.78125	302.914312235215	0.000395904541015625	0.78094482421875
665	0.77880859375	302.938712235153	0.000387969970703125	0.7781982421875
666	0.7763671875	302.963112235092	0.00038153076171875	0.77545166015625
667	0.77392578125	302.98751223503	0.00037481689453125	0.77301025390625
668	0.771484375	303.011912234968	0.000367767333984375	0.7708740234375
669	0.76904296875	303.036312234907	0.00036102294921875	0.76812744140625
670	0.7666015625	303.060712234845	0.00035504150390625	0.76568603515625
671	0.76416015625	303.085112234784	0.000349639892578125	0.76324462890625
672	0.76171875	303.109512234722	0.00034332275390625	0.76080322265625
673	0.75927734375	303.13391223466	0.000336761474609375	0.7586669921875
674	0.7568359375	303.158312234599	0.0003311767578125	0.75653076171875
675	0.75439453125	303.182712234537	0.000325531005859375	0.7537841796875
676	0.751953125	303.207112234476	0.000319732666015625	0.7513427734375
677	0.74951171875	303.231512234414	0.00031463623046875	0.749298095703125
678	0.7470703125	303.255912234352	0.0003092041015625	0.74688720703125
679	0.74462890625	303.280312234291	0.000305023193359375	0.744415283203125
680	0.7421875	303.304712234229	0.00029803466796875	0.741943359375
681	0.73974609375	303.329112234168	0.00029266357421875	0.739471435546875
682	0.7373046875	303.353512234106	0.000287322998046875	0.737091064453125
683	0.73486328125	303.377912234044	0.0002825927734375	0.734649658203125
684	0.732421875	303.402312233983	0.00027874755859375	0.732208251953125
685	0.72998046875	303.426712233921	0.0002734375	0.729766845703125
686	0.7275390625	303.45111223386	0.0002677001953125	0.727325439453125
687	0.72509765625	303.475512233798	0.000263214111328125	0.724853515625
688	0.72265625	303.499912233736	0.00025701904296875	0.722442626953125
689	0.72021484375	303.524312233675	0.00025244140625	0.72003173828125
690	0.7177734375	303.548712233613	0.00024957275390625	0.717529296875
691	0.71533203125	303.573112233552	0.000243896484375	0.71514892578125
692	0.712890625	303.59751223349	0.000240509033203125	0.712677001953125
693	0.71044921875	303.621912233428	0.000236236572265625	0.7103271484375
694	0.7080078125	303.646312233367	0.00023223876953125	0.70782470703125
695	0.70556640625	303.670712233305	0.00022857666015625	0.70538330078125
696	0.703125	303.695112233244	0.000223907470703125	0.702911376953125
697	0.70068359375	303.719512233182	0.000219970703125	0.700531005859375
698	0.6982421875	303.74391223312	0.000216400146484375	0.698089599609375
699	0.69580078125	303.768312233059	0.00021197509765625	0.69561767578125
700	0.693359375	303.792712232997	0.00020849609375	0.693145751953125
701	0.69091796875	303.817112232936	0.000204498291015625	0.69073486328125
702	0.6884765625	303.841512232874	0.000201416015625	0.68829345703125
703	0.68603515625	303.865912232812	0.00019805908203125	0.685882568359375
704	0.68359375	303.890312232751	0.0001947021484375	0.68341064453125
705	0.68115234375	303.914712232689	0.00019061279296875	0.68096923828125
706	0.6787109375	303.939112232628	0.0001871337890625	0.6785888671875
707	0.67626953125	303.963512232566	0.00018341064453125	0.6761474609375
708	0.673828125	303.987912232504	0.00018133544921875	0.673614501953125
709	0.67138671875	304.012312232443	0.0001783447265625	0.6712646484375
710	0.6689453125	304.036712232381	0.000175201416015625	0.668792724609375
711	0.66650390625	304.061112232319	0.000172149658203125	0.666351318359375
712	0.6640625	304.085512232258	0.0001685791015625	0.663909912109375
713	0.66162109375	304.109912232196	0.00016583251953125	0.661529541015625
714	0.6591796875	304.134312232135	0.000161529541015625	0.659027099609375
715	0.65673828125	304.158712232073	0.0001600341796875	0.6566162109375
716	0.654296875	304.183112232011	0.00015576171875	0.6541748046875
717	0.65185546875	304.20751223195	0.00015509033203125	0.651763916015625
718	0.6494140625	304.231912231888	0.000152862548828125	0.649322509765625
719	0.64697265625	304.256312231827	0.000148651123046875	0.646942138671875
720	0.64453125	304.280712231765	0.000145477294921875	0.6444091796875
721	0.64208984375	304.305112231703	0.000142852783203125	0.64190673828125
722	0.6396484375	304.329512231642	0.000139984130859375	0.63958740234375
723	0.63720703125	304.35391223158	0.0001375732421875	0.6370849609375
724	0.634765625	304.378312231519	0.00013531494140625	0.634674072265625
725	0.63232421875	304.402712231457	0.000134613037109375	0.6322021484375
726	0.6298828125	304.427112231395	0.000131500244140625	0.629791259765625
727	0.62744140625	304.451512231334	0.000128875732421875	0.627288818359375
728	0.625	304.475912231272	0.000127044677734375	0.6248779296875
729	0.62255859375	304.500312231211	0.00012457275390625	0.622467041015625
730	0.6201171875	304.524712231149	0.00012176513671875	0.620025634765625
731	0.61767578125	304.549112231087	0.0001202392578125	0.617584228515625
732	0.615234375	304.573512231026	0.00011724853515625	0.615142822265625
733	0.61279296875	304.597912230964	0.000116119384765625	0.612701416015625
734	0.6103515625	304.622312230903	0.000113922119140625	0.61029052734375
735	0.60791015625	304.646712230841	0.000112396240234375	0.60784912109375
736	0.60546875	304.671112230779	0.0001103515625	0.605438232421875
737	0.60302734375	304.695512230718	0.000107879638671875	0.60302734375
738	0.6005859375	304.719912230656	0.000106719970703125	0.600494384765625
739	0.59814453125	304.744312230595	0.00010443115234375	0.598114013671875
740	0.595703125	304.768712230533	0.000102508544921875	0.595672607421875
741	0.59326171875	304.793112230471	0.000100738525390625	0.59320068359375
742	0.5908203125	304.81751223041	9.881591796875E-05	0.590789794921875
743	0.58837890625	304.841912230348	9.765625E-05	0.5882568359375
744	0.5859375	304.866312230287	9.515380859375E-05	0.585784912109375
745	0.58349609375	304.890712230225	9.3505859375E-05	0.5833740234375
746	0.5810546875	304.915112230163	9.19189453125E-05	0.58099365234375
747	0.57861328125	304.939512230102	9.0667724609375E-05	0.578399658203125
748	0.576171875	304.96391223004	8.831787109375E-05	0.57598876953125
749	0.57373046875	304.988312229979	8.746337890625E-05	0.573516845703125
750	0.5712890625	305.012712229917	8.660888671875E-05	0.571075439453125
751	0.56884765625	305.037112229855	8.4716796875E-05	0.5687255859375
752	0.56640625	305.061512229794	8.3587646484375E-05	0.566253662109375
753	0.56396484375	305.085912229732	8.10546875E-05	0.563812255859375
754	0.5615234375	305.110312229671	8.056640625E-05	0.5614013671875
755	0.55908203125	305.134712229609	7.8887939453125E-05	0.558837890625
756	0.556640625	305.159112229547	7.7789306640625E-05	0.5565185546875
757	0.55419921875	305.183512229486	7.6171875E-05	0.554046630859375
758	0.5517578125	305.207912229424	7.470703125E-05	0.551483154296875
759	0.54931640625	305.232312229362	7.3822021484375E-05	0.54913330078125
760	0.546875	305.256712229301	7.2601318359375E-05	0.546783447265625
761	0.54443359375	305.281112229239	7.18994140625E-05	0.54425048828125
762	0.5419921875	305.305512229178	7.0098876953125E-05	0.541839599609375
763	0.53955078125	305.329912229116	6.9793701171875E-05	0.539337158203125
764	0.537109375	305.354312229054	6.8145751953125E-05	0.53692626953125
765	0.53466796875	305.378712228993	6.7047119140625E-05	0.53448486328125
766	0.5322265625	305.403112228931	6.6253662109375E-05	0.53204345703125
767	0.52978515625	305.42751222887	6.5338134765625E-05	0.529632568359375
768	0.52734375	305.451912228808	6.475830078125E-05	0.52716064453125
769	0.52490234375	305.476312228746	6.2744140625E-05	0.5247802734375
770	0.5224609375	305.500712228685	6.2530517578125E-05	0.522308349609375
771	0.52001953125	305.525112228623	6.134033203125E-05	0.51983642578125
772	0.517578125	305.549512228562	6.0028076171875E-05	0.517425537109375
773	0.51513671875	305.5739122285	5.9722900390625E-05	0.514984130859375
774	0.5126953125	305.598312228438	5.902099609375E-05	0.5125732421875
775	0.51025390625	305.622712228377	5.8197021484375E-05	0.5101318359375
776	0.5078125	305.647112228315	5.633544921875E-05	0.507659912109375
777	0.50537109375	305.671512228254	5.6304931640625E-05	0.505157470703125
778	0.5029296875	305.695912228192	5.5328369140625E-05	0.502777099609375
779	0.50048828125	305.72031222813	5.4168701171875E-05	0.5003662109375
780	0.498046875	305.744712228069	5.3680419921875E-05	0.4979248046875
781	0.49560546875	305.769112228007	5.2978515625E-05	0.4954833984375
782	0.4931640625	305.793512227946	5.2276611328125E-05	0.4930419921875
783	0.49072265625	305.817912227884	5.1361083984375E-05	0.4906005859375
784	0.48828125	305.842312227822	5.17578125E-05	0.48822021484375
785	0.48583984375	305.866712227761	5.0506591796875E-05	0.4857177734375
786	0.4833984375	305.891112227699	5.04150390625E-05	0.48321533203125
787	0.48095703125	305.915512227638	4.931640625E-05	0.480865478515625
788	0.478515625	305.939912227576	4.84100341796875E-05	0.478424072265625
789	0.47607421875	305.964312227514	4.7760009765625E-05	0.475921630859375
790	0.4736328125	305.988712227453	4.70306396484375E-05	0.4735107421875
791	0.47119140625	306.013112227391	4.71221923828125E-05	0.471038818359375
792	0.46875	306.03751222733	4.55780029296875E-05	0.468658447265625
793	0.46630859375	306.061912227268	4.5013427734375E-05	0.4661865234375
794	0.4638671875	306.086312227206	4.43756103515625E-05	0.463775634765625
795	0.46142578125	306.110712227145	4.310302734375E-05	0.461334228515625
796	0.458984375	306.135112227083	4.26727294921875E-05	0.4588623046875
797	0.45654296875	306.159512227022	4.21661376953125E-05	0.456390380859375
798	0.4541015625	306.18391222696	4.1668701171875E-05	0.45404052734375
799	0.45166015625	306.208312226898	4.124755859375E-05	0.4515380859375
800	0.44921875	306.232712226837	4.07623291015625E-05	0.4490966796875
801	0.44677734375	306.257112226775	3.97674560546875E-05	0.4466552734375
802	0.4443359375	306.281512226714	3.961181640625E-05	0.444244384765625
803	0.44189453125	306.305912226652	3.91265869140625E-05	0.44183349609375
804	0.439453125	306.33031222659	3.74786376953125E-05	0.4393310546875
805	0.43701171875	306.354712226529	3.70635986328125E-05	0.43695068359375
806	0.4345703125	306.379112226467	3.62396240234375E-05	0.434478759765625
807	0.43212890625	306.403512226405	3.62091064453125E-05	0.43206787109375
808	0.4296875	306.427912226344	3.5888671875E-05	0.42962646484375
809	0.42724609375	306.452312226282	3.5162353515625E-05	0.42718505859375
810	0.4248046875	306.476712226221	3.47869873046875E-05	0.42474365234375
811	0.42236328125	306.501112226159	3.4368896484375E-05	0.422332763671875
812	0.419921875	306.525512226097	3.45245361328125E-05	0.419830322265625
813	0.41748046875	306.549912226036	3.33526611328125E-05	0.41741943359375
814	0.4150390625	306.574312225974	3.3392333984375E-05	0.4150390625
815	0.41259765625	306.598712225913	3.297119140625E-05	0.41253662109375
816	0.41015625	306.623112225851	3.2269287109375E-05	0.41009521484375
817	0.40771484375	306.647512225789	3.1976318359375E-05	0.407623291015625
818	0.4052734375	306.671912225728	3.1451416015625E-05	0.405181884765625
819	0.40283203125	306.696312225666	3.14453125E-05	0.402801513671875
820	0.400390625	306.720712225605	3.06060791015625E-05	0.40032958984375
821	0.39794921875	306.745112225543	3.11309814453125E-05	0.39788818359375
822	0.3955078125	306.769512225481	2.95257568359375E-05	0.3955078125
823	0.39306640625	306.79391222542	2.98614501953125E-05	0.39306640625
824	0.390625	306.818312225358	2.9437255859375E-05	0.390594482421875
825	0.38818359375	306.842712225297	2.87261962890625E-05	0.388153076171875
826	0.3857421875	306.867112225235	2.81341552734375E-05	0.38568115234375
827	0.38330078125	306.891512225173	2.74017333984375E-05	0.383209228515625
828	0.380859375	306.915912225112	2.7264404296875E-05	0.380828857421875
829	0.37841796875	306.94031222505	2.6666259765625E-05	0.37835693359375
830	0.3759765625	306.964712224989	2.72125244140625E-05	0.3758544921875
831	0.37353515625	306.989112224927	2.60955810546875E-05	0.37347412109375
832	0.37109375	307.013512224865	2.59521484375E-05	0.371063232421875
833	0.36865234375	307.037912224804	2.53936767578125E-05	0.368560791015625
834	0.3662109375	307.062312224742	2.452392578125E-05	0.366180419921875
835	0.36376953125	307.086712224681	2.47894287109375E-05	0.363739013671875
836	0.361328125	307.111112224619	2.34130859375E-05	0.36126708984375
837	0.35888671875	307.135512224557	2.36602783203125E-05	0.35882568359375
838	0.3564453125	307.159912224496	2.27996826171875E-05	0.3564453125
839	0.35400390625	307.184312224434	2.22442626953125E-05	0.353973388671875
840	0.3515625	307.208712224373	2.1954345703125E-05	0.3515625
841	0.34912109375	307.233112224311	2.176513671875E-05	0.34906005859375
842	0.3466796875	307.257512224249	2.17498779296875E-05	0.3466796875
843	0.34423828125	307.281912224188	2.1240234375E-05	0.344207763671875
844	0.341796875	307.306312224126	2.13104248046875E-05	0.34173583984375
845	0.33935546875	307.330712224065	1.99310302734375E-05	0.33935546875
846	0.3369140625	307.355112224003	2.02362060546875E-05	0.33685302734375
847	0.33447265625	307.379512223941	1.951904296875E-05	0.33447265625
848	0.33203125	307.40391222388	1.91436767578125E-05	0.331939697265625
849	0.32958984375	307.428312223818	1.91802978515625E-05	0.32958984375
850	0.3271484375	307.452712223757	1.86981201171875E-05	0.327117919921875
851	0.32470703125	307.477112223695	1.864013671875E-05	0.32470703125
852	0.322265625	307.501512223633	1.7913818359375E-05	0.322296142578125
853	0.31982421875	307.525912223572	1.842041015625E-05	0.319793701171875
854	0.3173828125	307.55031222351	1.76513671875E-05	0.317413330078125
855	0.31494140625	307.574712223449	1.7388916015625E-05	0.31494140625
856	0.3125	307.599112223387	1.70318603515625E-05	0.31243896484375
857	0.31005859375	307.623512223325	1.62750244140625E-05	0.309967041015625
858	0.3076171875	307.647912223264	1.66351318359375E-05	0.30755615234375
859	0.30517578125	307.672312223202	1.5625E-05	0.30511474609375
860	0.302734375	307.69671222314	1.56341552734375E-05	0.302703857421875
861	0.30029296875	307.721112223079	1.494140625E-05	0.300323486328125
862	0.2978515625	307.745512223017	1.50909423828125E-05	0.297821044921875
863	0.29541015625	307.769912222956	1.4227294921875E-05	0.29541015625
864	0.29296875	307.794312222894	1.39312744140625E-05	0.292938232421875
865	0.29052734375	307.818712222832	1.40533447265625E-05	0.290496826171875
866	0.2880859375	307.843112222771	1.36993408203125E-05	0.288055419921875
867	0.28564453125	307.867512222709	1.37237548828125E-05	0.28564453125
868	0.283203125	307.891912222648	1.24176025390625E-05	0.28314208984375
869	0.28076171875	307.916312222586	1.27593994140625E-05	0.28076171875
870	0.2783203125	307.940712222524	1.2066650390625E-05	0.278289794921875
871	0.27587890625	307.965112222463	1.151123046875E-05	0.27587890625
872	0.2734375	307.989512222401	1.14959716796875E-05	0.273406982421875
873	0.27099609375	308.01391222234	1.09283447265625E-05	0.270965576171875
874	0.2685546875	308.038312222278	1.09832763671875E-05	0.2685546875
875	0.26611328125	308.062712222216	1.0223388671875E-05	0.266082763671875
876	0.263671875	308.087112222155	1.04217529296875E-05	0.26373291015625
877	0.26123046875	308.111512222093	9.8968505859375E-06	0.261260986328125
878	0.2587890625	308.135912222032	9.8175048828125E-06	0.2587890625
879	0.25634765625	308.16031222197	9.8388671875E-06	0.25634765625
880	0.25390625	308.184712221908	9.2498779296875E-06	0.25390625
881	0.25146484375	308.209112221847	9.442138671875E-06	0.251495361328125
882	0.2490234375	308.233512221785	8.60595703125E-06	0.248870849609375
883	0.24658203125	308.257912221724	8.3831787109375E-06	0.2464599609375
884	0.244140625	308.282312221662	7.891845703125E-06	0.243988037109375
885	0.24169921875	308.3067122216	7.9010009765625E-06	0.2415771484375
886	0.2392578125	308.331112221539	7.4188232421875E-06	0.2391357421875
887	0.23681640625	308.355512221477	6.982421875E-06	0.2366943359375
888	0.234375	308.379912221416	6.62841796875E-06	0.234222412109375
889	0.23193359375	308.404312221354	6.1248779296875E-06	0.2318115234375
890	0.2294921875	308.428712221292	6.6558837890625E-06	0.2293701171875
891	0.22705078125	308.453112221231	5.9112548828125E-06	0.226898193359375
892	0.224609375	308.477512221169	5.841064453125E-06	0.224517822265625
893	0.22216796875	308.501912221108	4.8553466796875E-06	0.2220458984375
894	0.2197265625	308.526312221046	4.7882080078125E-06	0.219696044921875
895	0.21728515625	308.550712220984	4.7576904296875E-06	0.21722412109375
896	0.21484375	308.575112220923	3.9715576171875E-06	0.21478271484375
897	0.21240234375	308.599512220861	4.07928466796875E-06	0.21234130859375
898	0.2099609375	308.6239122208	3.35205078125E-06	0.20989990234375
899	0.20751953125	308.648312220738	3.4710693359375E-06	0.207489013671875
900	0.205078125	308.672712220676	3.123779296875E-06	0.205108642578125
901	0.20263671875	308.697112220615	2.80303955078125E-06	0.20257568359375
902	0.2001953125	308.721512220553	2.40264892578125E-06	0.20013427734375
903	0.19775390625	308.745912220492	1.776123046875E-06	0.19775390625
904	0.1953125	308.77031222043	1.82861328125E-06	0.195343017578125
905	0.19287109375	308.794712220368	1.0296630859375E-06	0.192901611328125
906	0.1904296875	308.819112220307	1.1456298828125E-06	0.1904296875
907	0.18798828125	308.843512220245	8.5601806640625E-07	0.187957763671875
908	0.185546875	308.867912220183	5.3619384765625E-07	0.185577392578125
909	0.18310546875	308.892312220122	2.4139404296875E-07	0.18316650390625
910	0.1806640625	308.91671222006	-4.2724609375E-07	0.180694580078125
911	0.17822265625	308.941112219999	-2.4383544921875E-07	0.17828369140625
912	0.17578125	308.965512219937	-9.136962890625E-07	0.175872802734375
913	0.17333984375	308.989912219875	-7.5531005859375E-07	0.173553466796875
914	0.1708984375	309.014312219814	-1.61346435546875E-06	0.17095947265625
915	0.16845703125	309.038712219752	-1.53961181640625E-06	0.16876220703125
916	0.166015625	309.063112219691	-1.86553955078125E-06	0.166168212890625
917	0.16357421875	309.087512219629	-2.20245361328125E-06	0.164031982421875
918	0.1611328125	309.111912219567	-2.29461669921875E-06	0.161590576171875
919	0.15869140625	309.136312219506	-3.12225341796875E-06	0.1591796875
920	0.15625	309.160712219444	-2.84698486328125E-06	0.15625
921	0.15380859375	309.185112219383	-3.4039306640625E-06	0.1539306640625
922	0.1513671875	309.209512219321	-3.36517333984375E-06	0.15142822265625
923	0.14892578125	309.233912219259	-3.9154052734375E-06	0.149017333984375
924	0.146484375	309.258312219198	-4.56146240234375E-06	0.1466064453125
925	0.14404296875	309.282712219136	-4.4677734375E-06	0.1441650390625
926	0.1416015625	309.307112219075	-5.1788330078125E-06	0.141693115234375
927	0.13916015625	309.331512219013	-4.925537109375E-06	0.13922119140625
928	0.13671875	309.355912218951	-5.859375E-06	0.136810302734375
929	0.13427734375	309.38031221889	-5.6854248046875E-06	0.134368896484375
930	0.1318359375	309.404712218828	-6.5216064453125E-06	0.13189697265625
931	0.12939453125	309.429112218767	-6.8450927734375E-06	0.1295166015625
932	0.126953125	309.453512218705	-6.927490234375E-06	0.12701416015625
933	0.12451171875	309.477912218643	-7.6507568359375E-06	0.12469482421875
934	0.1220703125	309.502312218582	-7.4737548828125E-06	0.122161865234375
935	0.11962890625	309.52671221852	-8.1634521484375E-06	0.1197509765625
936	0.1171875	309.551112218459	-7.8948974609375E-06	0.117279052734375
937	0.11474609375	309.575512218397	-8.7066650390625E-06	0.114837646484375
938	0.1123046875	309.599912218335	-8.8287353515625E-06	0.112457275390625
939	0.10986328125	309.624312218274	-9.2559814453125E-06	0.1099853515625
940	0.107421875	309.648712218212	-9.564208984375E-06	0.10760498046875
941	0.10498046875	309.673112218151	-9.552001953125E-06	0.1051025390625
942	0.1025390625	309.697512218089	-1.043701171875E-05	0.10272216796875
943	0.10009765625	309.721912218027	-1.02020263671875E-05	0.100250244140625
944	0.09765625	309.746312217966	-1.08734130859375E-05	0.097869873046875
945	0.09521484375	309.770712217904	-1.08673095703125E-05	0.095428466796875
946	0.0927734375	309.795112217843	-1.12518310546875E-05	0.09295654296875
947	0.09033203125	309.819512217781	-1.17156982421875E-05	0.090545654296875
948	0.087890625	309.843912217719	-1.1773681640625E-05	0.08807373046875
949	0.08544921875	309.868312217658	-1.24420166015625E-05	0.085693359375
950	0.0830078125	309.892712217596	-1.21551513671875E-05	0.083251953125
951	0.08056640625	309.917112217535	-1.29364013671875E-05	0.080810546875
952	0.078125	309.941512217473	-1.2908935546875E-05	0.078338623046875
953	0.07568359375	309.965912217411	-1.33453369140625E-05	0.075927734375
954	0.0732421875	309.99031221735	-1.35650634765625E-05	0.07342529296875
955	0.07080078125	310.014712217288	-1.38031005859375E-05	0.07098388671875
956	0.068359375	310.039112217226	-1.45721435546875E-05	0.068603515625
957	0.06591796875	310.063512217165	-1.42730712890625E-05	0.066162109375
958	0.0634765625	310.087912217103	-1.50726318359375E-05	0.063690185546875
959	0.06103515625	310.112312217042	-1.4837646484375E-05	0.061248779296875
960	0.05859375	310.13671221698	-1.552734375E-05	0.058837890625
961	0.05615234375	310.161112216918	-1.5789794921875E-05	0.056396484375
962	0.0537109375	310.185512216857	-1.5966796875E-05	0.053985595703125
963	0.05126953125	310.209912216795	-1.65374755859375E-05	0.051605224609375
964	0.048828125	310.234312216734	-1.634521484375E-05	0.048992919921875
965	0.04638671875	310.258712216672	-1.72332763671875E-05	0.046551513671875
966	0.0439453125	310.28311221661	-1.6973876953125E-05	0.0441070556640625
967	0.04150390625	310.307512216549	-1.766357421875E-05	0.0416839599609375
968	0.0390625	310.331912216487	-1.7742919921875E-05	0.0392120361328125
969	0.03662109375	310.356312216426	-1.8145751953125E-05	0.0368011474609375
970	0.0341796875	310.380712216364	-1.865234375E-05	0.0343505859375
971	0.03173828125	310.405112216302	-1.86614990234375E-05	0.0319122314453125
972	0.029296875	310.429512216241	-1.9384765625E-05	0.0294647216796875
973	0.02685546875	310.453912216179	-1.91070556640625E-05	0.0270294189453125
974	0.0244140625	310.478312216118	-1.99249267578125E-05	0.0245697021484375
975	0.02197265625	310.502712216056	-1.993408203125E-05	0.02213134765625
976	0.01953125	310.527112215994	-2.03277587890625E-05	0.0196807861328125
977	0.01708984375	310.551512215933	-2.06787109375E-05	0.0172637939453125
978	0.0146484375	310.575912215871	-2.073974609375E-05	0.014801025390625
979	0.01220703125	310.60031221581	-2.1478271484375E-05	0.0123779296875
980	0.009765625	310.624712215748	-2.1221923828125E-05	0.0099365234375
981	0.00732421875	310.649112215686	-2.1978759765625E-05	0.0075225830078125
982	0.0048828125	310.673512215625	-2.18475341796875E-05	0.00508728027343749
983	0.00244140625	310.697912215563	-2.2430419921875E-05	0.0026275634765625
984	0	310.722312215502	-2.27264404296875E-05	0.000177001953125006
985	0.00244140625	310.74671221544	-2.2235107421875E-05	0.00261535644531249
986	0.0048828125	310.771112215378	-2.22259521484375E-05	0.005078125
987	0.00732421875	310.795512215317	-2.14263916015625E-05	0.00750122070312501
988	0.009765625	310.819912215255	-2.166748046875E-05	0.0099365234375
989	0.01220703125	310.844312215194	-2.08770751953125E-05	0.0123687744140625
990	0.0146484375	310.868712215132	-2.08343505859375E-05	0.0148162841796875
991	0.01708984375	310.89311221507	-2.0367431640625E-05	0.017254638671875
992	0.01953125	310.917512215009	-2.00469970703125E-05	0.0197174072265625
993	0.02197265625	310.941912214947	-2.00469970703125E-05	0.0221343994140625
