Index	Potential applied (V)	Time (s)	WE(1).Current (A)	WE(1).Potential (V)
1	0.00244140625	6.56693998342007	-2.222900390625E-05	0.0026092529296875
2	0.0048828125	6.59133998335847	-2.20062255859375E-05	0.0050201416015625
3	0.00732421875	6.61573998329686	-2.17010498046875E-05	0.0074920654296875
4	0.009765625	6.64013998323526	-2.11456298828125E-05	0.009918212890625
5	0.01220703125	6.66453998317365	-2.1258544921875E-05	0.012347412109375
6	0.0146484375	6.68893998311205	-2.0379638671875E-05	0.0148101806640625
7	0.01708984375	6.71333998305045	-2.04986572265625E-05	0.01724853515625
8	0.01953125	6.73773998298884	-1.97052001953125E-05	0.0196746826171875
9	0.02197265625	6.76213998292724	-1.9659423828125E-05	0.02213134765625
10	0.0244140625	6.78653998286563	-1.93267822265625E-05	0.0245574951171875
11	0.02685546875	6.81093998280403	-1.8798828125E-05	0.0270111083984375
12	0.029296875	6.83533998274243	-1.8768310546875E-05	0.029449462890625
13	0.03173828125	6.85973998268082	-1.80328369140625E-05	0.031884765625
14	0.0341796875	6.88413998261922	-1.822509765625E-05	0.034332275390625
15	0.03662109375	6.90853998255761	-1.73828125E-05	0.036761474609375
16	0.0390625	6.93293998249601	-1.73919677734375E-05	0.039208984375
17	0.04150390625	6.95733998243441	-1.693115234375E-05	0.0416534423828125
18	0.0439453125	6.9817399823728	-1.66748046875E-05	0.044110107421875
19	0.04638671875	7.0061399823112	-1.6619873046875E-05	0.0465362548828125
20	0.048828125	7.03053998224959	-1.58538818359375E-05	0.048974609375
21	0.05126953125	7.05493998218799	-1.5972900390625E-05	0.05133056640625
22	0.0537109375	7.07933998212638	-1.51519775390625E-05	0.0538330078125
23	0.05615234375	7.10373998206478	-1.52374267578125E-05	0.05621337890625
24	0.05859375	7.12813998200318	-1.46881103515625E-05	0.058685302734375
25	0.06103515625	7.15253998194157	-1.441650390625E-05	0.061126708984375
26	0.0634765625	7.17693998187997	-1.42120361328125E-05	0.063568115234375
27	0.06591796875	7.20133998181836	-1.3665771484375E-05	0.066009521484375
28	0.068359375	7.22573998175676	-1.376953125E-05	0.06842041015625
29	0.07080078125	7.25013998169516	-1.30279541015625E-05	0.070892333984375
30	0.0732421875	7.27453998163355	-1.314697265625E-05	0.073333740234375
31	0.07568359375	7.29893998157195	-1.2432861328125E-05	0.0758056640625
32	0.078125	7.32333998151034	-1.2225341796875E-05	0.07818603515625
33	0.08056640625	7.34773998144874	-1.20269775390625E-05	0.080657958984375
34	0.0830078125	7.37213998138714	-1.141357421875E-05	0.0831298828125
35	0.08544921875	7.39653998132553	-1.13372802734375E-05	0.085540771484375
36	0.087890625	7.42093998126393	-1.0595703125E-05	0.087982177734375
37	0.09033203125	7.44533998120232	-1.08367919921875E-05	0.0904541015625
38	0.0927734375	7.46973998114072	-9.9365234375E-06	0.09283447265625
39	0.09521484375	7.49413998107912	-9.930419921875E-06	0.0953369140625
40	0.09765625	7.51853998101751	-9.320068359375E-06	0.097747802734375
41	0.10009765625	7.54293998095591	-9.0606689453125E-06	0.10015869140625
42	0.1025390625	7.5673399808943	-8.935546875E-06	0.1026611328125
43	0.10498046875	7.5917399808327	-8.160400390625E-06	0.10516357421875
44	0.107421875	7.61613998077109	-8.33740234375E-06	0.1075439453125
45	0.10986328125	7.64053998070949	-7.3394775390625E-06	0.1099853515625
46	0.1123046875	7.66493998064789	-7.415771484375E-06	0.112396240234375
47	0.11474609375	7.68933998058628	-6.9549560546875E-06	0.1148681640625
48	0.1171875	7.71373998052468	-6.512451171875E-06	0.1173095703125
49	0.11962890625	7.73813998046307	-6.3629150390625E-06	0.1197509765625
50	0.1220703125	7.76253998040147	-5.841064453125E-06	0.12213134765625
51	0.12451171875	7.78693998033987	-5.8319091796875E-06	0.1246337890625
52	0.126953125	7.81133998027826	-4.8828125E-06	0.1270751953125
53	0.12939453125	7.83573998021666	-4.931640625E-06	0.129486083984375
54	0.1318359375	7.86013998015505	-4.10888671875E-06	0.131866455078125
55	0.13427734375	7.88453998009345	-4.10858154296875E-06	0.13446044921875
56	0.13671875	7.90893998003185	-3.8421630859375E-06	0.1368408203125
57	0.13916015625	7.93333997997024	-3.26904296875E-06	0.1392822265625
58	0.1416015625	7.95773997990864	-3.338623046875E-06	0.1417236328125
59	0.14404296875	7.98213997984703	-2.4884033203125E-06	0.144134521484375
60	0.146484375	8.00653997978543	-2.66204833984375E-06	0.14654541015625
61	0.14892578125	8.03093997972383	-2.0263671875E-06	0.149017333984375
62	0.1513671875	8.05533997966222	-1.81854248046875E-06	0.15142822265625
63	0.15380859375	8.07973997960062	-1.3214111328125E-06	0.15386962890625
64	0.15625	8.10413997953901	-1.01531982421875E-06	0.15631103515625
65	0.15869140625	8.12853997947741	-1.131591796875E-06	0.1588134765625
66	0.1611328125	8.15293997941581	-3.1524658203125E-07	0.16119384765625
67	0.16357421875	8.1773399793542	-3.2135009765625E-07	0.163543701171875
68	0.166015625	8.2017399792926	4.2388916015625E-07	0.16607666015625
69	0.16845703125	8.22613997923099	5.645751953125E-07	0.16845703125
70	0.1708984375	8.25053997916939	1.1962890625E-06	0.17095947265625
71	0.17333984375	8.27493997910778	1.59942626953125E-06	0.17333984375
72	0.17578125	8.29933997904618	1.72149658203125E-06	0.175750732421875
73	0.17822265625	8.32373997898458	2.43072509765625E-06	0.178192138671875
74	0.1806640625	8.34813997892297	2.2509765625E-06	0.180633544921875
75	0.18310546875	8.37253997886137	3.42529296875E-06	0.183074951171875
76	0.185546875	8.39693997879976	3.2977294921875E-06	0.18548583984375
77	0.18798828125	8.42133997873816	3.96636962890625E-06	0.18792724609375
78	0.1904296875	8.44573997867656	4.03656005859375E-06	0.190338134765625
79	0.19287109375	8.47013997861495	4.50439453125E-06	0.192840576171875
80	0.1953125	8.49453997855335	4.864501953125E-06	0.1951904296875
81	0.19775390625	8.51893997849174	4.931640625E-06	0.197662353515625
82	0.2001953125	8.54333997843014	5.889892578125E-06	0.200103759765625
83	0.20263671875	8.56773997836854	5.8258056640625E-06	0.202484130859375
84	0.205078125	8.59213997830693	6.2286376953125E-06	0.204986572265625
85	0.20751953125	8.61653997824533	6.5155029296875E-06	0.2073974609375
86	0.2099609375	8.64093997818372	7.269287109375E-06	0.2098388671875
87	0.21240234375	8.66533997812212	7.794189453125E-06	0.212310791015625
88	0.21484375	8.68973997806052	7.4127197265625E-06	0.214691162109375
89	0.21728515625	8.71413997799891	8.6029052734375E-06	0.2171630859375
90	0.2197265625	8.73853997793731	8.4320068359375E-06	0.2196044921875
91	0.22216796875	8.7629399778757	9.0667724609375E-06	0.2220458984375
92	0.224609375	8.7873399778141	8.7799072265625E-06	0.224395751953125
93	0.22705078125	8.8117399777525	9.4818115234375E-06	0.226806640625
94	0.2294921875	8.83613997769089	1.01593017578125E-05	0.22930908203125
95	0.23193359375	8.86053997762929	1.02508544921875E-05	0.231781005859375
96	0.234375	8.88493997756768	1.0870361328125E-05	0.234222412109375
97	0.23681640625	8.90933997750608	1.0797119140625E-05	0.23663330078125
98	0.2392578125	8.93373997744447	1.15509033203125E-05	0.239105224609375
99	0.24169921875	8.95813997738287	1.1492919921875E-05	0.241546630859375
100	0.244140625	8.98253997732127	1.24755859375E-05	0.243927001953125
101	0.24658203125	9.00693997725966	1.2921142578125E-05	0.24639892578125
102	0.2490234375	9.03133997719806	1.302490234375E-05	0.248809814453125
103	0.25146484375	9.05573997713645	1.314697265625E-05	0.251251220703125
104	0.25390625	9.08013997707485	1.30157470703125E-05	0.253662109375
105	0.25634765625	9.10453997701325	1.43951416015625E-05	0.256103515625
106	0.2587890625	9.12893997695164	1.4013671875E-05	0.258575439453125
107	0.26123046875	9.15333997689004	1.4862060546875E-05	0.261077880859375
108	0.263671875	9.17773997682843	1.5185546875E-05	0.263427734375
109	0.26611328125	9.20213997676683	1.59698486328125E-05	0.265899658203125
110	0.2685546875	9.22653997670523	1.67877197265625E-05	0.26824951171875
111	0.27099609375	9.25093997664362	1.68853759765625E-05	0.270751953125
112	0.2734375	9.27533997658202	1.71417236328125E-05	0.273101806640625
113	0.27587890625	9.29973997652041	1.69342041015625E-05	0.27557373046875
114	0.2783203125	9.32413997645881	1.79779052734375E-05	0.278076171875
115	0.28076171875	9.34853997639721	1.7950439453125E-05	0.280426025390625
116	0.283203125	9.3729399763356	1.88690185546875E-05	0.2828369140625
117	0.28564453125	9.397339976274	1.87225341796875E-05	0.285308837890625
118	0.2880859375	9.42173997621239	1.88568115234375E-05	0.287750244140625
119	0.29052734375	9.44613997615079	1.993408203125E-05	0.290191650390625
120	0.29296875	9.47053997608919	2.021484375E-05	0.292633056640625
121	0.29541015625	9.49493997602758	2.11700439453125E-05	0.2950439453125
122	0.2978515625	9.51933997596598	2.1209716796875E-05	0.2974853515625
123	0.30029296875	9.54373997590437	2.152099609375E-05	0.2999267578125
124	0.302734375	9.56813997584277	2.13775634765625E-05	0.302398681640625
125	0.30517578125	9.59253997578116	2.166748046875E-05	0.304840087890625
126	0.3076171875	9.61693997571956	2.235107421875E-05	0.307159423828125
127	0.31005859375	9.64133997565796	2.2821044921875E-05	0.30963134765625
128	0.3125	9.66573997559635	2.40264892578125E-05	0.31207275390625
129	0.31494140625	9.69013997553475	2.35107421875E-05	0.31451416015625
130	0.3173828125	9.71453997547314	2.49755859375E-05	0.316986083984375
131	0.31982421875	9.73893997541154	2.54974365234375E-05	0.3193359375
132	0.322265625	9.76333997534994	2.58056640625E-05	0.32177734375
133	0.32470703125	9.78773997528833	2.606201171875E-05	0.32421875
134	0.3271484375	9.81213997522673	2.58819580078125E-05	0.326690673828125
135	0.32958984375	9.83653997516512	2.66357421875E-05	0.3291015625
136	0.33203125	9.86093997510352	2.6751708984375E-05	0.331512451171875
137	0.33447265625	9.88533997504192	2.79571533203125E-05	0.333953857421875
138	0.3369140625	9.90973997498031	2.8302001953125E-05	0.336334228515625
139	0.33935546875	9.93413997491871	2.83935546875E-05	0.33880615234375
140	0.341796875	9.9585399748571	2.90130615234375E-05	0.3411865234375
141	0.34423828125	9.9829399747955	2.9278564453125E-05	0.343658447265625
142	0.3466796875	10.0073399747339	2.99774169921875E-05	0.346038818359375
143	0.34912109375	10.0317399746723	2.99560546875E-05	0.34844970703125
144	0.3515625	10.0561399746107	3.06243896484375E-05	0.350921630859375
145	0.35400390625	10.0805399745491	3.10760498046875E-05	0.35394287109375
146	0.3564453125	10.1049399744875	3.18115234375E-05	0.35638427734375
147	0.35888671875	10.1293399744259	3.20831298828125E-05	0.35882568359375
148	0.361328125	10.1537399743643	3.265380859375E-05	0.36126708984375
149	0.36376953125	10.1781399743027	3.2989501953125E-05	0.36376953125
150	0.3662109375	10.2025399742411	3.292236328125E-05	0.3662109375
151	0.36865234375	10.2269399741795	3.41827392578125E-05	0.36865234375
152	0.37109375	10.2513399741179	3.4326171875E-05	0.371002197265625
153	0.37353515625	10.2757399740563	3.515625E-05	0.373504638671875
154	0.3759765625	10.3001399739946	3.4918212890625E-05	0.3758544921875
155	0.37841796875	10.324539973933	3.54461669921875E-05	0.3782958984375
156	0.380859375	10.3489399738714	3.590087890625E-05	0.380828857421875
157	0.38330078125	10.3733399738098	3.6376953125E-05	0.383270263671875
158	0.3857421875	10.3977399737482	3.70391845703125E-05	0.38568115234375
159	0.38818359375	10.4221399736866	3.69964599609375E-05	0.388153076171875
160	0.390625	10.446539973625	3.8427734375E-05	0.390533447265625
161	0.39306640625	10.4709399735634	3.78631591796875E-05	0.39300537109375
162	0.3955078125	10.4953399735018	3.88092041015625E-05	0.395477294921875
163	0.39794921875	10.5197399734402	3.9617919921875E-05	0.3978271484375
164	0.400390625	10.5441399733786	3.963623046875E-05	0.4002685546875
165	0.40283203125	10.568539973317	4.0789794921875E-05	0.402740478515625
166	0.4052734375	10.5929399732554	4.0777587890625E-05	0.40521240234375
167	0.40771484375	10.6173399731938	4.22332763671875E-05	0.407623291015625
168	0.41015625	10.6417399731322	4.18212890625E-05	0.41015625
169	0.41259765625	10.6661399730706	4.3389892578125E-05	0.412506103515625
170	0.4150390625	10.690539973009	4.46044921875E-05	0.41497802734375
171	0.41748046875	10.7149399729474	4.44793701171875E-05	0.417388916015625
172	0.419921875	10.7393399728858	4.56451416015625E-05	0.419830322265625
173	0.42236328125	10.7637399728242	4.57855224609375E-05	0.42230224609375
174	0.4248046875	10.7881399727626	4.6807861328125E-05	0.424774169921875
175	0.42724609375	10.812539972701	4.63287353515625E-05	0.427154541015625
176	0.4296875	10.8369399726394	4.79248046875E-05	0.4295654296875
177	0.43212890625	10.8613399725778	4.7869873046875E-05	0.431976318359375
178	0.4345703125	10.8857399725161	4.7967529296875E-05	0.4344482421875
179	0.43701171875	10.9101399724545	4.9652099609375E-05	0.436920166015625
180	0.439453125	10.9345399723929	4.9957275390625E-05	0.439300537109375
181	0.44189453125	10.9589399723313	5.11474609375E-05	0.441741943359375
182	0.4443359375	10.9833399722697	5.1361083984375E-05	0.444183349609375
183	0.44677734375	11.0077399722081	5.218505859375E-05	0.4466552734375
184	0.44921875	11.0321399721465	5.2520751953125E-05	0.449127197265625
185	0.45166015625	11.0565399720849	5.3863525390625E-05	0.451507568359375
186	0.4541015625	11.0809399720233	5.438232421875E-05	0.45404052734375
187	0.45654296875	11.1053399719617	5.56640625E-05	0.4564208984375
188	0.458984375	11.1297399719001	5.6365966796875E-05	0.458831787109375
189	0.46142578125	11.1541399718385	5.682373046875E-05	0.4613037109375
190	0.4638671875	11.1785399717769	5.8074951171875E-05	0.463714599609375
191	0.46630859375	11.2029399717153	5.8746337890625E-05	0.4661865234375
192	0.46875	11.2273399716537	6.0089111328125E-05	0.46868896484375
193	0.47119140625	11.2517399715921	6.1248779296875E-05	0.471099853515625
194	0.4736328125	11.2761399715305	6.243896484375E-05	0.4735107421875
195	0.47607421875	11.3005399714689	6.3140869140625E-05	0.475982666015625
196	0.478515625	11.3249399714073	6.304931640625E-05	0.478302001953125
197	0.48095703125	11.3493399713457	6.475830078125E-05	0.4808349609375
198	0.4833984375	11.3737399712841	6.5032958984375E-05	0.4832763671875
199	0.48583984375	11.3981399712225	6.6680908203125E-05	0.485687255859375
200	0.48828125	11.4225399711609	6.744384765625E-05	0.488067626953125
201	0.49072265625	11.4469399710993	6.866455078125E-05	0.490570068359375
202	0.4931640625	11.4713399710377	6.9915771484375E-05	0.4930419921875
203	0.49560546875	11.495739970976	7.110595703125E-05	0.495452880859375
204	0.498046875	11.5201399709144	7.269287109375E-05	0.4979248046875
205	0.50048828125	11.5445399708528	7.3486328125E-05	0.5003662109375
206	0.5029296875	11.5689399707912	7.5775146484375E-05	0.50274658203125
207	0.50537109375	11.5933399707296	7.7056884765625E-05	0.505218505859375
208	0.5078125	11.617739970668	7.891845703125E-05	0.50762939453125
209	0.51025390625	11.6421399706064	8.0718994140625E-05	0.5101318359375
210	0.5126953125	11.6665399705448	8.19091796875E-05	0.5125732421875
211	0.51513671875	11.6909399704832	8.349609375E-05	0.51495361328125
212	0.517578125	11.7153399704216	8.4808349609375E-05	0.517333984375
213	0.52001953125	11.73973997036	8.7066650390625E-05	0.519866943359375
214	0.5224609375	11.7641399702984	8.868408203125E-05	0.52227783203125
215	0.52490234375	11.7885399702368	9.0301513671875E-05	0.524749755859375
216	0.52734375	11.8129399701752	9.222412109375E-05	0.527191162109375
217	0.52978515625	11.8373399701136	9.368896484375E-05	0.529571533203125
218	0.5322265625	11.861739970052	9.6710205078125E-05	0.53204345703125
219	0.53466796875	11.8861399699904	9.8236083984375E-05	0.534393310546875
220	0.537109375	11.9105399699288	0.000100830078125	0.536865234375
221	0.53955078125	11.9349399698672	0.0001026611328125	0.539306640625
222	0.5419921875	11.9593399698056	0.000104827880859375	0.541778564453125
223	0.54443359375	11.983739969744	0.000107757568359375	0.544189453125
224	0.546875	12.0081399696824	0.00010980224609375	0.546661376953125
225	0.54931640625	12.0325399696208	0.00011334228515625	0.549102783203125
226	0.5517578125	12.0569399695592	0.00011480712890625	0.551513671875
227	0.55419921875	12.0813399694975	0.000118896484375	0.553985595703125
228	0.556640625	12.1057399694359	0.000121795654296875	0.556396484375
229	0.55908203125	12.1301399693743	0.000125213623046875	0.558868408203125
230	0.5615234375	12.1545399693127	0.00012786865234375	0.561279296875
231	0.56396484375	12.1789399692511	0.00013128662109375	0.56365966796875
232	0.56640625	12.2033399691895	0.000134490966796875	0.56610107421875
233	0.56884765625	12.2277399691279	0.000137786865234375	0.568511962890625
234	0.5712890625	12.2521399690663	0.000141937255859375	0.5709228515625
235	0.57373046875	12.2765399690047	0.00014508056640625	0.5733642578125
236	0.576171875	12.3009399689431	0.0001505126953125	0.575775146484375
237	0.57861328125	12.3253399688815	0.000154296875	0.578216552734375
238	0.5810546875	12.3497399688199	0.0001588134765625	0.580657958984375
239	0.58349609375	12.3741399687583	0.000163055419921875	0.5831298828125
240	0.5859375	12.3985399686967	0.000168487548828125	0.5855712890625
241	0.58837890625	12.4229399686351	0.00017291259765625	0.5880126953125
242	0.5908203125	12.4473399685735	0.000178192138671875	0.59039306640625
243	0.59326171875	12.4717399685119	0.00018475341796875	0.592864990234375
244	0.595703125	12.4961399684503	0.00019000244140625	0.59527587890625
245	0.59814453125	12.5205399683887	0.0001959228515625	0.59771728515625
246	0.6005859375	12.5449399683271	0.00020166015625	0.60009765625
247	0.60302734375	12.5693399682655	0.0002080078125	0.602569580078125
248	0.60546875	12.5937399682039	0.00021502685546875	0.605010986328125
249	0.60791015625	12.6181399681423	0.0002205810546875	0.60736083984375
250	0.6103515625	12.6425399680807	0.000228179931640625	0.609832763671875
251	0.61279296875	12.6669399680191	0.000235595703125	0.612213134765625
252	0.615234375	12.6913399679574	0.000243011474609375	0.6146240234375
253	0.61767578125	12.7157399678958	0.000251190185546875	0.617095947265625
254	0.6201171875	12.7401399678342	0.00025909423828125	0.61944580078125
255	0.62255859375	12.7645399677726	0.000267730712890625	0.62188720703125
256	0.625	12.788939967711	0.000276092529296875	0.62432861328125
257	0.62744140625	12.8133399676494	0.0002850341796875	0.626708984375
258	0.6298828125	12.8377399675878	0.0002952880859375	0.629119873046875
259	0.63232421875	12.8621399675262	0.000304962158203125	0.631500244140625
260	0.634765625	12.8865399674646	0.000314361572265625	0.634552001953125
261	0.63720703125	12.910939967403	0.000325439453125	0.637115478515625
262	0.6396484375	12.9353399673414	0.0003363037109375	0.639556884765625
263	0.64208984375	12.9597399672798	0.0003482666015625	0.6419677734375
264	0.64453125	12.9841399672182	0.000360137939453125	0.644378662109375
265	0.64697265625	13.0085399671566	0.000372100830078125	0.646820068359375
266	0.6494140625	13.032939967095	0.00038433837890625	0.64923095703125
267	0.65185546875	13.0573399670334	0.00039752197265625	0.651702880859375
268	0.654296875	13.0817399669718	0.000410614013671875	0.65411376953125
269	0.65673828125	13.1061399669102	0.00042449951171875	0.656524658203125
270	0.6591796875	13.1305399668486	0.000440216064453125	0.65899658203125
271	0.66162109375	13.154939966787	0.000455322265625	0.66143798828125
272	0.6640625	13.1793399667254	0.0004698486328125	0.66387939453125
273	0.66650390625	13.2037399666638	0.000484405517578125	0.666351318359375
274	0.6689453125	13.2281399666022	0.00050048828125	0.6688232421875
275	0.67138671875	13.2525399665406	0.00051666259765625	0.671173095703125
276	0.673828125	13.2769399664789	0.0005328369140625	0.67364501953125
277	0.67626953125	13.3013399664173	0.0005517578125	0.67608642578125
278	0.6787109375	13.3257399663557	0.00056976318359375	0.678497314453125
279	0.68115234375	13.3501399662941	0.00058746337890625	0.680908203125
280	0.68359375	13.3745399662325	0.00060546875	0.68341064453125
281	0.68603515625	13.3989399661709	0.00062469482421875	0.68585205078125
282	0.6884765625	13.4233399661093	0.0006451416015625	0.688232421875
283	0.69091796875	13.4477399660477	0.00066558837890625	0.69073486328125
284	0.693359375	13.4721399659861	0.000687255859375	0.693115234375
285	0.69580078125	13.4965399659245	0.00070831298828125	0.695526123046875
286	0.6982421875	13.5209399658629	0.0007305908203125	0.697998046875
287	0.70068359375	13.5453399658013	0.00075286865234375	0.700469970703125
288	0.703125	13.5697399657397	0.00077606201171875	0.702911376953125
289	0.70556640625	13.5941399656781	0.00079925537109375	0.70526123046875
290	0.7080078125	13.6185399656165	0.0008233642578125	0.707733154296875
291	0.71044921875	13.6429399655549	0.000848388671875	0.710113525390625
292	0.712890625	13.6673399654933	0.0008740234375	0.712615966796875
293	0.71533203125	13.6917399654317	0.000899658203125	0.715057373046875
294	0.7177734375	13.7161399653701	0.00092529296875	0.71746826171875
295	0.72021484375	13.7405399653085	0.00095184326171875	0.71990966796875
296	0.72265625	13.7649399652469	0.00097869873046875	0.722320556640625
297	0.72509765625	13.7893399651853	0.001005859375	0.724822998046875
298	0.7275390625	13.8137399651237	0.00103485107421875	0.72723388671875
299	0.72998046875	13.8381399650621	0.0010626220703125	0.72967529296875
300	0.732421875	13.8625399650005	0.001092529296875	0.7320556640625
301	0.73486328125	13.8869399649388	0.00112060546875	0.73443603515625
302	0.7373046875	13.9113399648772	0.00115142822265625	0.736968994140625
303	0.73974609375	13.9357399648156	0.001181640625	0.739349365234375
304	0.7421875	13.960139964754	0.00121368408203125	0.74176025390625
305	0.74462890625	13.9845399646924	0.00124481201171875	0.7442626953125
306	0.7470703125	14.0089399646308	0.00127655029296875	0.746673583984375
307	0.74951171875	14.0333399645692	0.0013104248046875	0.749114990234375
308	0.751953125	14.0577399645076	0.00134246826171875	0.7513427734375
309	0.75439453125	14.082139964446	0.00137664794921875	0.75408935546875
310	0.7568359375	14.1065399643844	0.0014105224609375	0.75592041015625
311	0.75927734375	14.1309399643228	0.00144561767578125	0.7586669921875
312	0.76171875	14.1553399642612	0.00147979736328125	0.7611083984375
313	0.76416015625	14.1797399641996	0.00151580810546875	0.76385498046875
314	0.7666015625	14.204139964138	0.0015521240234375	0.765380859375
315	0.76904296875	14.2285399640764	0.0015875244140625	0.7684326171875
316	0.771484375	14.2529399640148	0.0016253662109375	0.77056884765625
317	0.77392578125	14.2773399639532	0.0016619873046875	0.77301025390625
318	0.7763671875	14.3017399638916	0.001700439453125	0.7757568359375
319	0.77880859375	14.32613996383	0.00173828125	0.77850341796875
320	0.78125	14.3505399637684	0.00177642822265625	0.7806396484375
321	0.78369140625	14.3749399637068	0.00181640625	0.7830810546875
322	0.7861328125	14.3993399636452	0.00185546875	0.78582763671875
323	0.78857421875	14.4237399635836	0.001895751953125	0.78826904296875
324	0.791015625	14.448139963522	0.0019354248046875	0.789794921875
325	0.79345703125	14.4725399634603	0.00197723388671875	0.79254150390625
326	0.7958984375	14.4969399633987	0.0020184326171875	0.794677734375
327	0.79833984375	14.5213399633371	0.002060546875	0.79742431640625
328	0.80078125	14.5457399632755	0.0021026611328125	0.8001708984375
329	0.80322265625	14.5701399632139	0.00214508056640625	0.8026123046875
330	0.8056640625	14.5945399631523	0.00218841552734375	0.80535888671875
331	0.80810546875	14.6189399630907	0.00223114013671875	0.8074951171875
332	0.810546875	14.6433399630291	0.00227630615234375	0.8099365234375
333	0.81298828125	14.6677399629675	0.00231842041015625	0.811767578125
334	0.8154296875	14.6921399629059	0.00236358642578125	0.8148193359375
335	0.81787109375	14.7165399628443	0.0024078369140625	0.81695556640625
336	0.8203125	14.7409399627827	0.00245269775390625	0.82000732421875
337	0.82275390625	14.7653399627211	0.002498779296875	0.821533203125
338	0.8251953125	14.7897399626595	0.0025433349609375	0.8245849609375
339	0.82763671875	14.8141399625979	0.00259002685546875	0.82672119140625
340	0.830078125	14.8385399625363	0.00263580322265625	0.82916259765625
341	0.83251953125	14.8629399624747	0.0026837158203125	0.8319091796875
342	0.8349609375	14.8873399624131	0.00273040771484375	0.8343505859375
343	0.83740234375	14.9117399623515	0.00277801513671875	0.8367919921875
344	0.83984375	14.9361399622899	0.002825927734375	0.83892822265625
345	0.84228515625	14.9605399622283	0.00287353515625	0.84136962890625
346	0.8447265625	14.9849399621667	0.00292266845703125	0.8441162109375
347	0.84716796875	15.0093399621051	0.00296966552734375	0.8465576171875
348	0.849609375	15.0337399620435	0.0030194091796875	0.84869384765625
349	0.85205078125	15.0581399619819	0.003067626953125	0.85113525390625
350	0.8544921875	15.0825399619202	0.0031182861328125	0.85418701171875
351	0.85693359375	15.1069399618586	0.0031683349609375	0.85601806640625
352	0.859375	15.131339961797	0.0032177734375	0.858154296875
353	0.86181640625	15.1557399617354	0.00326995849609375	0.86090087890625
354	0.8642578125	15.1801399616738	0.00331939697265625	0.86334228515625
355	0.86669921875	15.2045399616122	0.00337158203125	0.865478515625
356	0.869140625	15.2289399615506	0.00341949462890625	0.8685302734375
357	0.87158203125	15.253339961489	0.0034716796875	0.8709716796875
358	0.8740234375	15.2777399614274	0.00352264404296875	0.87310791015625
359	0.87646484375	15.3021399613658	0.00357330322265625	0.8758544921875
360	0.87890625	15.3265399613042	0.00362396240234375	0.8782958984375
361	0.88134765625	15.3509399612426	0.00367340087890625	0.88043212890625
362	0.8837890625	15.375339961181	0.00372589111328125	0.88287353515625
363	0.88623046875	15.3997399611194	0.00377532958984375	0.88531494140625
364	0.888671875	15.4241399610578	0.00382598876953125	0.88775634765625
365	0.89111328125	15.4485399609962	0.00387420654296875	0.89019775390625
366	0.8935546875	15.4729399609346	0.00392333984375	0.8929443359375
367	0.89599609375	15.497339960873	0.0039727783203125	0.8953857421875
368	0.8984375	15.5217399608114	0.00401947021484375	0.89752197265625
369	0.90087890625	15.5461399607498	0.00406768798828125	0.89996337890625
370	0.9033203125	15.5705399606882	0.00411224365234375	0.9027099609375
371	0.90576171875	15.5949399606266	0.00415802001953125	0.90576171875
372	0.908203125	15.619339960565	0.0042010498046875	0.90728759765625
373	0.91064453125	15.6437399605034	0.00424407958984375	0.909423828125
374	0.9130859375	15.6681399604417	0.00428558349609375	0.9124755859375
375	0.91552734375	15.6925399603801	0.0043255615234375	0.91461181640625
376	0.91796875	15.7169399603185	0.004365234375	0.91705322265625
377	0.92041015625	15.7413399602569	0.0044024658203125	0.9197998046875
378	0.9228515625	15.7657399601953	0.00444000244140625	0.92193603515625
379	0.92529296875	15.7901399601337	0.00447418212890625	0.924072265625
380	0.927734375	15.8145399600721	0.00450897216796875	0.92620849609375
381	0.93017578125	15.8389399600105	0.00454193115234375	0.92926025390625
382	0.9326171875	15.8633399599489	0.004573974609375	0.93170166015625
383	0.93505859375	15.8877399598873	0.0046051025390625	0.93414306640625
384	0.9375	15.9121399598257	0.004635009765625	0.9368896484375
385	0.93994140625	15.9365399597641	0.0046649169921875	0.938720703125
386	0.9423828125	15.9609399597025	0.0046923828125	0.94207763671875
387	0.94482421875	15.9853399596409	0.00472015380859375	0.94390869140625
388	0.947265625	16.0097399595793	0.00474609375	0.94635009765625
389	0.94970703125	16.0341399595177	0.004771728515625	0.94879150390625
390	0.9521484375	16.0585399594561	0.0047967529296875	0.95123291015625
391	0.95458984375	16.0829399593945	0.004820556640625	0.95367431640625
392	0.95703125	16.1073399593329	0.00484405517578125	0.9564208984375
393	0.95947265625	16.1317399592713	0.0048663330078125	0.95855712890625
394	0.9619140625	16.1561399592097	0.004888916015625	0.96099853515625
395	0.96435546875	16.1805399591481	0.00490997314453125	0.963134765625
396	0.966796875	16.2049399590865	0.00493133544921875	0.96527099609375
397	0.96923828125	16.2293399590249	0.00495147705078125	0.9686279296875
398	0.9716796875	16.2537399589633	0.0049713134765625	0.97137451171875
399	0.97412109375	16.2781399589016	0.00499114990234375	0.97259521484375
400	0.9765625	16.30253995884	0.00500946044921875	0.97564697265625
401	0.97900390625	16.3269399587784	0.00502838134765625	0.97747802734375
402	0.9814453125	16.3513399587168	0.00504608154296875	0.9808349609375
403	0.98388671875	16.3757399586552	0.00506378173828125	0.9820556640625
404	0.986328125	16.4001399585936	0.00508087158203125	0.98541259765625
405	0.98876953125	16.424539958532	0.00509796142578125	0.987548828125
406	0.9912109375	16.4489399584704	0.00511444091796875	0.99029541015625
407	0.99365234375	16.4733399584088	0.00513031005859375	0.9930419921875
408	0.99609375	16.4977399583472	0.00514678955078125	0.9954833984375
409	0.99853515625	16.5221399582856	0.0051617431640625	0.99761962890625
410	1.0009765625	16.546539958224	0.00517730712890625	1.0003662109375
411	1.00341796875	16.5709399581624	0.00519195556640625	1.0028076171875
412	1.005859375	16.5953399581008	0.00520660400390625	1.00494384765625
413	1.00830078125	16.6197399580392	0.00522125244140625	1.007080078125
414	1.0107421875	16.6441399579776	0.00523529052734375	1.00982666015625
415	1.01318359375	16.668539957916	0.00524932861328125	1.01226806640625
416	1.015625	16.6929399578544	0.00526275634765625	1.01409912109375
417	1.01806640625	16.7173399577928	0.0052764892578125	1.016845703125
418	1.0205078125	16.7417399577312	0.00528961181640625	1.01959228515625
419	1.02294921875	16.7661399576696	0.00530303955078125	1.02203369140625
420	1.025390625	16.790539957608	0.0053155517578125	1.0247802734375
421	1.02783203125	16.8149399575464	0.00532806396484375	1.02691650390625
422	1.0302734375	16.8393399574848	0.00534088134765625	1.02935791015625
423	1.03271484375	16.8637399574231	0.005352783203125	1.03179931640625
424	1.03515625	16.8881399573615	0.00536529541015625	1.033935546875
425	1.03759765625	16.9125399572999	0.00537689208984375	1.03668212890625
426	1.0400390625	16.9369399572383	0.0053887939453125	1.03973388671875
427	1.04248046875	16.9613399571767	0.005400390625	1.04156494140625
428	1.044921875	16.9857399571151	0.00541168212890625	1.04461669921875
429	1.04736328125	17.0101399570535	0.0054229736328125	1.04644775390625
430	1.0498046875	17.0345399569919	0.0054339599609375	1.04888916015625
431	1.05224609375	17.0589399569303	0.00544525146484375	1.05133056640625
432	1.0546875	17.0833399568687	0.00545562744140625	1.0540771484375
433	1.05712890625	17.1077399568071	0.00546661376953125	1.0565185546875
434	1.0595703125	17.1321399567455	0.00547698974609375	1.0589599609375
435	1.06201171875	17.1565399566839	0.00548736572265625	1.0614013671875
436	1.064453125	17.1809399566223	0.00549774169921875	1.063232421875
437	1.06689453125	17.2053399565607	0.0055078125	1.065673828125
438	1.0693359375	17.2297399564991	0.00551788330078125	1.0687255859375
439	1.07177734375	17.2541399564375	0.00552764892578125	1.07086181640625
440	1.07421875	17.2785399563759	0.0055377197265625	1.0736083984375
441	1.07666015625	17.3029399563143	0.00554718017578125	1.075439453125
442	1.0791015625	17.3273399562527	0.005556640625	1.07818603515625
443	1.08154296875	17.3517399561911	0.00556610107421875	1.080322265625
444	1.083984375	17.3761399561295	0.00557525634765625	1.082763671875
445	1.08642578125	17.4005399560679	0.005584716796875	1.085205078125
446	1.0888671875	17.4249399560063	0.0055938720703125	1.08795166015625
447	1.09130859375	17.4493399559447	0.00560302734375	1.09039306640625
448	1.09375	17.473739955883	0.00561187744140625	1.092529296875
449	1.09619140625	17.4981399558214	0.00562103271484375	1.094970703125
450	1.0986328125	17.5225399557598	0.00562957763671875	1.09771728515625
451	1.10107421875	17.5469399556982	0.005638427734375	1.099853515625
452	1.103515625	17.5713399556366	0.00564697265625	1.10260009765625
453	1.10595703125	17.595739955575	0.005655517578125	1.104736328125
454	1.1083984375	17.6201399555134	0.0056640625	1.107177734375
455	1.11083984375	17.6445399554518	0.00567230224609375	1.1102294921875
456	1.11328125	17.6689399553902	0.00568084716796875	1.11236572265625
457	1.11572265625	17.6933399553286	0.0056890869140625	1.11480712890625
458	1.1181640625	17.717739955267	0.00569732666015625	1.11724853515625
459	1.12060546875	17.7421399552054	0.00570526123046875	1.119384765625
460	1.123046875	17.7665399551438	0.00571319580078125	1.1224365234375
461	1.12548828125	17.7909399550822	0.005721435546875	1.12457275390625
462	1.1279296875	17.8153399550206	0.00572906494140625	1.126708984375
463	1.13037109375	17.839739954959	0.00573699951171875	1.129150390625
464	1.1328125	17.8641399548974	0.00574462890625	1.1322021484375
465	1.13525390625	17.8885399548358	0.0057525634765625	1.134033203125
466	1.1376953125	17.9129399547742	0.0057598876953125	1.1370849609375
467	1.14013671875	17.9373399547126	0.00576751708984375	1.138916015625
468	1.142578125	17.961739954651	0.005775146484375	1.14166259765625
469	1.14501953125	17.9861399545894	0.00578216552734375	1.14410400390625
470	1.1474609375	18.0105399545278	0.005789794921875	1.14593505859375
471	1.14990234375	18.0349399544662	0.00579681396484375	1.1492919921875
472	1.15234375	18.0593399544045	0.00580413818359375	1.1505126953125
473	1.15478515625	18.0837399543429	0.00581146240234375	1.1541748046875
474	1.1572265625	18.1081399542813	0.0058184814453125	1.15631103515625
475	1.15966796875	18.1325399542197	0.0058258056640625	1.1590576171875
476	1.162109375	18.1569399541581	0.00583251953125	1.160888671875
477	1.16455078125	18.1813399540965	0.00583984375	1.16363525390625
478	1.1669921875	18.2057399540349	0.0058465576171875	1.16607666015625
479	1.16943359375	18.2301399539733	0.00585357666015625	1.16912841796875
480	1.171875	18.2545399539117	0.00586029052734375	1.17034912109375
481	1.17431640625	18.2789399538501	0.00586700439453125	1.17340087890625
482	1.1767578125	18.3033399537885	0.0058740234375	1.17584228515625
483	1.17919921875	18.3277399537269	0.00588043212890625	1.177978515625
484	1.181640625	18.3521399536653	0.00588714599609375	1.18072509765625
485	1.18408203125	18.3765399536037	0.0058935546875	1.18316650390625
486	1.1865234375	18.4009399535421	0.00590057373046875	1.185302734375
487	1.18896484375	18.4253399534805	0.005906982421875	1.187744140625
488	1.19140625	18.4497399534189	0.00591339111328125	1.190185546875
489	1.19384765625	18.4741399533573	0.0059197998046875	1.19293212890625
490	1.1962890625	18.4985399532957	0.00592620849609375	1.195068359375
491	1.19873046875	18.5229399532341	0.0059326171875	1.197509765625
492	1.201171875	18.5473399531725	0.00593902587890625	1.199951171875
493	1.19873046875	18.5717399531109	0.00592742919921875	1.1981201171875
494	1.1962890625	18.5961399530493	0.00591583251953125	1.195068359375
495	1.19384765625	18.6205399529877	0.00590423583984375	1.192626953125
496	1.19140625	18.6449399529261	0.005892333984375	1.19049072265625
497	1.18896484375	18.6693399528644	0.00588043212890625	1.18804931640625
498	1.1865234375	18.6937399528028	0.0058685302734375	1.18499755859375
499	1.18408203125	18.7181399527412	0.0058563232421875	1.182861328125
500	1.181640625	18.7425399526796	0.0058441162109375	1.18072509765625
501	1.17919921875	18.766939952618	0.00583160400390625	1.17828369140625
502	1.1767578125	18.7913399525564	0.005819091796875	1.17584228515625
503	1.17431640625	18.8157399524948	0.00580657958984375	1.173095703125
504	1.171875	18.8401399524332	0.00579345703125	1.17034912109375
505	1.16943359375	18.8645399523716	0.0057806396484375	1.168212890625
506	1.1669921875	18.88893995231	0.00576751708984375	1.16607666015625
507	1.16455078125	18.9133399522484	0.00575408935546875	1.1639404296875
508	1.162109375	18.9377399521868	0.0057403564453125	1.160888671875
509	1.15966796875	18.9621399521252	0.0057269287109375	1.15875244140625
510	1.1572265625	18.9865399520636	0.00571319580078125	1.156005859375
511	1.15478515625	19.010939952002	0.00569915771484375	1.153564453125
512	1.15234375	19.0353399519404	0.005684814453125	1.15142822265625
513	1.14990234375	19.0597399518788	0.005670166015625	1.14898681640625
514	1.1474609375	19.0841399518172	0.00565582275390625	1.146240234375
515	1.14501953125	19.1085399517556	0.005640869140625	1.143798828125
516	1.142578125	19.132939951694	0.0056256103515625	1.1419677734375
517	1.14013671875	19.1573399516324	0.0056103515625	1.138916015625
518	1.1376953125	19.1817399515708	0.00559478759765625	1.13677978515625
519	1.13525390625	19.2061399515092	0.0055792236328125	1.13433837890625
520	1.1328125	19.2305399514476	0.00556304931640625	1.13189697265625
521	1.13037109375	19.2549399513859	0.00554656982421875	1.12884521484375
522	1.1279296875	19.2793399513243	0.00552978515625	1.12701416015625
523	1.12548828125	19.3037399512627	0.00551300048828125	1.124267578125
524	1.123046875	19.3281399512011	0.00549591064453125	1.12213134765625
525	1.12060546875	19.3525399511395	0.005478515625	1.11968994140625
526	1.1181640625	19.3769399510779	0.00546051025390625	1.11724853515625
527	1.11572265625	19.4013399510163	0.00544219970703125	1.114501953125
528	1.11328125	19.4257399509547	0.00542388916015625	1.11236572265625
529	1.11083984375	19.4501399508931	0.0054046630859375	1.10992431640625
530	1.1083984375	19.4745399508315	0.0053857421875	1.1077880859375
531	1.10595703125	19.4989399507699	0.0053656005859375	1.104736328125
532	1.103515625	19.5233399507083	0.00534515380859375	1.102294921875
533	1.10107421875	19.5477399506467	0.00532470703125	1.1004638671875
534	1.0986328125	19.5721399505851	0.00530364990234375	1.09710693359375
535	1.09619140625	19.5965399505235	0.00528167724609375	1.0955810546875
536	1.09375	19.6209399504619	0.00525909423828125	1.0931396484375
537	1.09130859375	19.6453399504003	0.00523681640625	1.09039306640625
538	1.0888671875	19.6697399503387	0.00521331787109375	1.0882568359375
539	1.08642578125	19.6941399502771	0.005189208984375	1.0858154296875
540	1.083984375	19.7185399502155	0.0051641845703125	1.0833740234375
541	1.08154296875	19.7429399501539	0.00513916015625	1.08001708984375
542	1.0791015625	19.7673399500923	0.0051129150390625	1.0784912109375
543	1.07666015625	19.7917399500307	0.00508575439453125	1.0760498046875
544	1.07421875	19.8161399499691	0.0050579833984375	1.072998046875
545	1.07177734375	19.8405399499075	0.0050286865234375	1.070556640625
546	1.0693359375	19.8649399498458	0.00499908447265625	1.068115234375
547	1.06689453125	19.8893399497842	0.00496795654296875	1.065673828125
548	1.064453125	19.9137399497226	0.0049359130859375	1.0638427734375
549	1.06201171875	19.938139949661	0.00490234375	1.06109619140625
550	1.0595703125	19.9625399495994	0.0048675537109375	1.05865478515625
551	1.05712890625	19.9869399495378	0.00483184814453125	1.055908203125
552	1.0546875	20.0113399494762	0.004793701171875	1.05377197265625
553	1.05224609375	20.0357399494146	0.00475433349609375	1.0516357421875
554	1.0498046875	20.060139949353	0.0047125244140625	1.04888916015625
555	1.04736328125	20.0845399492914	0.00466949462890625	1.04644775390625
556	1.044921875	20.1089399492298	0.0046240234375	1.043701171875
557	1.04248046875	20.1333399491682	0.004576416015625	1.04156494140625
558	1.0400390625	20.1577399491066	0.00452667236328125	1.03912353515625
559	1.03759765625	20.182139949045	0.004473876953125	1.03607177734375
560	1.03515625	20.2065399489834	0.00441925048828125	1.033935546875
561	1.03271484375	20.2309399489218	0.00436065673828125	1.0321044921875
562	1.0302734375	20.2553399488602	0.00430084228515625	1.0296630859375
563	1.02783203125	20.2797399487986	0.004237060546875	1.0272216796875
564	1.025390625	20.304139948737	0.0041717529296875	1.024169921875
565	1.02294921875	20.3285399486754	0.00410430908203125	1.021728515625
566	1.0205078125	20.3529399486138	0.004034423828125	1.0198974609375
567	1.01806640625	20.3773399485522	0.0039630126953125	1.016845703125
568	1.015625	20.4017399484906	0.00388946533203125	1.01470947265625
569	1.01318359375	20.426139948429	0.0038165283203125	1.01226806640625
570	1.0107421875	20.4505399483674	0.00374114990234375	1.00982666015625
571	1.00830078125	20.4749399483057	0.0036676025390625	1.00738525390625
572	1.005859375	20.4993399482441	0.00359344482421875	1.00494384765625
573	1.00341796875	20.5237399481825	0.00351898193359375	1.0028076171875
574	1.0009765625	20.5481399481209	0.0034454345703125	1.00006103515625
575	0.99853515625	20.5725399480593	0.00337158203125	0.99761962890625
576	0.99609375	20.5969399479977	0.0032989501953125	0.9954833984375
577	0.99365234375	20.6213399479361	0.0032257080078125	0.99273681640625
578	0.9912109375	20.6457399478745	0.0031549072265625	0.99090576171875
579	0.98876953125	20.6701399478129	0.00308502197265625	0.9881591796875
580	0.986328125	20.6945399477513	0.00301513671875	0.98541259765625
581	0.98388671875	20.7189399476897	0.00294647216796875	0.9832763671875
582	0.9814453125	20.7433399476281	0.00287811279296875	0.9808349609375
583	0.97900390625	20.7677399475665	0.002811279296875	0.97808837890625
584	0.9765625	20.7921399475049	0.002745361328125	0.9759521484375
585	0.97412109375	20.8165399474433	0.00268157958984375	0.972900390625
586	0.9716796875	20.8409399473817	0.00261688232421875	0.97076416015625
587	0.96923828125	20.8653399473201	0.0025537109375	0.9686279296875
588	0.966796875	20.8897399472585	0.00249237060546875	0.9661865234375
589	0.96435546875	20.9141399471969	0.0024310302734375	0.9637451171875
590	0.9619140625	20.9385399471353	0.0023736572265625	0.96099853515625
591	0.95947265625	20.9629399470737	0.00231414794921875	0.9588623046875
592	0.95703125	20.9873399470121	0.002257080078125	0.95672607421875
593	0.95458984375	21.0117399469505	0.00219970703125	0.95367431640625
594	0.9521484375	21.0361399468889	0.0021453857421875	0.95184326171875
595	0.94970703125	21.0605399468272	0.002091064453125	0.9490966796875
596	0.947265625	21.0849399467656	0.0020379638671875	0.94635009765625
597	0.94482421875	21.109339946704	0.00198638916015625	0.94390869140625
598	0.9423828125	21.1337399466424	0.00193572998046875	0.9417724609375
599	0.93994140625	21.1581399465808	0.00188629150390625	0.938720703125
600	0.9375	21.1825399465192	0.00183685302734375	0.936279296875
601	0.93505859375	21.2069399464576	0.0017901611328125	0.93414306640625
602	0.9326171875	21.231339946396	0.00174285888671875	0.9320068359375
603	0.93017578125	21.2557399463344	0.00169830322265625	0.92926025390625
604	0.927734375	21.2801399462728	0.001654052734375	0.92681884765625
605	0.92529296875	21.3045399462112	0.001611328125	0.92437744140625
606	0.9228515625	21.3289399461496	0.00157012939453125	0.92193603515625
607	0.92041015625	21.353339946088	0.0015277099609375	0.9185791015625
608	0.91796875	21.3777399460264	0.00148651123046875	0.91766357421875
609	0.91552734375	21.4021399459648	0.00144744873046875	0.91461181640625
610	0.9130859375	21.4265399459032	0.00140960693359375	0.91278076171875
611	0.91064453125	21.4509399458416	0.00137359619140625	0.90972900390625
612	0.908203125	21.47533994578	0.0013372802734375	0.906982421875
613	0.90576171875	21.4997399457184	0.001302490234375	0.90484619140625
614	0.9033203125	21.5241399456568	0.001268310546875	0.90179443359375
615	0.90087890625	21.5485399455952	0.00123504638671875	0.9002685546875
616	0.8984375	21.5729399455336	0.0012030029296875	0.897216796875
617	0.89599609375	21.597339945472	0.0011724853515625	0.894775390625
618	0.8935546875	21.6217399454104	0.0011419677734375	0.89263916015625
619	0.89111328125	21.6461399453488	0.0011126708984375	0.89080810546875
620	0.888671875	21.6705399452871	0.00108551025390625	0.8880615234375
621	0.88623046875	21.6949399452255	0.001058349609375	0.88531494140625
622	0.8837890625	21.7193399451639	0.00103118896484375	0.88287353515625
623	0.88134765625	21.7437399451023	0.00100555419921875	0.88043212890625
624	0.87890625	21.7681399450407	0.0009814453125	0.8782958984375
625	0.87646484375	21.7925399449791	0.0009576416015625	0.8758544921875
626	0.8740234375	21.8169399449175	0.00093505859375	0.87310791015625
627	0.87158203125	21.8413399448559	0.00091064453125	0.87066650390625
628	0.869140625	21.8657399447943	0.0008892822265625	0.86822509765625
629	0.86669921875	21.8901399447327	0.000867919921875	0.86578369140625
630	0.8642578125	21.9145399446711	0.00084808349609375	0.863037109375
631	0.86181640625	21.9389399446095	0.00082855224609375	0.86151123046875
632	0.859375	21.9633399445479	0.00080902099609375	0.858154296875
633	0.85693359375	21.9877399444863	0.000789794921875	0.8563232421875
634	0.8544921875	22.0121399444247	0.000772705078125	0.85418701171875
635	0.85205078125	22.0365399443631	0.00075439453125	0.8514404296875
636	0.849609375	22.0609399443015	0.0007379150390625	0.84869384765625
637	0.84716796875	22.0853399442399	0.00072052001953125	0.84625244140625
638	0.8447265625	22.1097399441783	0.00070404052734375	0.8441162109375
639	0.84228515625	22.1341399441167	0.0006884765625	0.8416748046875
640	0.83984375	22.1585399440551	0.00067352294921875	0.83953857421875
641	0.83740234375	22.1829399439935	0.00065887451171875	0.8367919921875
642	0.8349609375	22.2073399439319	0.00064544677734375	0.83404541015625
643	0.83251953125	22.2317399438703	0.00063140869140625	0.83099365234375
644	0.830078125	22.2561399438086	0.00061859130859375	0.82977294921875
645	0.82763671875	22.280539943747	0.00060577392578125	0.82672119140625
646	0.8251953125	22.3049399436854	0.00059356689453125	0.823974609375
647	0.82275390625	22.3293399436238	0.0005810546875	0.821533203125
648	0.8203125	22.3537399435622	0.00056915283203125	0.8197021484375
649	0.81787109375	22.3781399435006	0.0005572509765625	0.8172607421875
650	0.8154296875	22.402539943439	0.000545654296875	0.81451416015625
651	0.81298828125	22.4269399433774	0.00053497314453125	0.81207275390625
652	0.810546875	22.4513399433158	0.00052520751953125	0.809326171875
653	0.80810546875	22.4757399432542	0.00051513671875	0.80718994140625
654	0.8056640625	22.5001399431926	0.0005035400390625	0.8050537109375
655	0.80322265625	22.524539943131	0.000493682861328125	0.80291748046875
656	0.80078125	22.5489399430694	0.000484649658203125	0.79925537109375
657	0.79833984375	22.5733399430078	0.000475311279296875	0.79803466796875
658	0.7958984375	22.5977399429462	0.000465667724609375	0.794677734375
659	0.79345703125	22.6221399428846	0.00045733642578125	0.7928466796875
660	0.791015625	22.646539942823	0.00044873046875	0.79010009765625
661	0.78857421875	22.6709399427614	0.0004393310546875	0.78765869140625
662	0.7861328125	22.6953399426998	0.000431671142578125	0.78521728515625
663	0.78369140625	22.7197399426382	0.000422698974609375	0.78277587890625
664	0.78125	22.7441399425766	0.000414764404296875	0.7806396484375
665	0.77880859375	22.768539942515	0.00040692138671875	0.7781982421875
666	0.7763671875	22.7929399424534	0.00039971923828125	0.7757568359375
667	0.77392578125	22.8173399423918	0.00039312744140625	0.7733154296875
668	0.771484375	22.8417399423302	0.000385345458984375	0.77117919921875
669	0.76904296875	22.8661399422685	0.000378021240234375	0.76812744140625
670	0.7666015625	22.8905399422069	0.000372039794921875	0.765380859375
671	0.76416015625	22.9149399421453	0.000364501953125	0.7635498046875
672	0.76171875	22.9393399420837	0.00035784912109375	0.7611083984375
673	0.75927734375	22.9637399420221	0.000351806640625	0.75836181640625
674	0.7568359375	22.9881399419605	0.000345855712890625	0.755615234375
675	0.75439453125	23.0125399418989	0.00033868408203125	0.7537841796875
676	0.751953125	23.0369399418373	0.000332733154296875	0.7513427734375
677	0.74951171875	23.0613399417757	0.000326171875	0.74932861328125
678	0.7470703125	23.0857399417141	0.000320220947265625	0.746856689453125
679	0.74462890625	23.1101399416525	0.0003143310546875	0.744384765625
680	0.7421875	23.1345399415909	0.000309417724609375	0.741973876953125
681	0.73974609375	23.1589399415293	0.000303955078125	0.73956298828125
682	0.7373046875	23.1833399414677	0.000298919677734375	0.737152099609375
683	0.73486328125	23.2077399414061	0.00029315185546875	0.734649658203125
684	0.732421875	23.2321399413445	0.00028729248046875	0.73223876953125
685	0.72998046875	23.2565399412829	0.0002828369140625	0.729766845703125
686	0.7275390625	23.2809399412213	0.000276824951171875	0.72735595703125
687	0.72509765625	23.3053399411597	0.00027349853515625	0.724853515625
688	0.72265625	23.3297399410981	0.000268096923828125	0.72247314453125
689	0.72021484375	23.3541399410365	0.000263031005859375	0.720001220703125
690	0.7177734375	23.3785399409749	0.000258880615234375	0.71759033203125
691	0.71533203125	23.4029399409133	0.00025274658203125	0.715118408203125
692	0.712890625	23.4273399408517	0.00024945068359375	0.712646484375
693	0.71044921875	23.45173994079	0.0002440185546875	0.71026611328125
694	0.7080078125	23.4761399407284	0.000239471435546875	0.707794189453125
695	0.70556640625	23.5005399406668	0.000234130859375	0.705413818359375
696	0.703125	23.5249399406052	0.000230316162109375	0.70294189453125
697	0.70068359375	23.5493399405436	0.0002275390625	0.700469970703125
698	0.6982421875	23.573739940482	0.0002235107421875	0.6981201171875
699	0.69580078125	23.5981399404204	0.000219635009765625	0.69561767578125
700	0.693359375	23.6225399403588	0.00021636962890625	0.693206787109375
701	0.69091796875	23.6469399402972	0.000211761474609375	0.690765380859375
702	0.6884765625	23.6713399402356	0.00020782470703125	0.6883544921875
703	0.68603515625	23.695739940174	0.000204681396484375	0.68585205078125
704	0.68359375	23.7201399401124	0.00020025634765625	0.68341064453125
705	0.68115234375	23.7445399400508	0.00019598388671875	0.680999755859375
706	0.6787109375	23.7689399399892	0.0001939697265625	0.678619384765625
707	0.67626953125	23.7933399399276	0.00019036865234375	0.676116943359375
708	0.673828125	23.817739939866	0.000187591552734375	0.6737060546875
709	0.67138671875	23.8421399398044	0.000184417724609375	0.671295166015625
710	0.6689453125	23.8665399397428	0.000180328369140625	0.66888427734375
711	0.66650390625	23.8909399396812	0.000176971435546875	0.6663818359375
712	0.6640625	23.9153399396196	0.000173980712890625	0.66400146484375
713	0.66162109375	23.939739939558	0.000170135498046875	0.6614990234375
714	0.6591796875	23.9641399394964	0.00016748046875	0.65911865234375
715	0.65673828125	23.9885399394348	0.000165283203125	0.6566162109375
716	0.654296875	24.0129399393732	0.00016168212890625	0.654205322265625
717	0.65185546875	24.0373399393116	0.000159149169921875	0.651702880859375
718	0.6494140625	24.0617399392499	0.000156646728515625	0.6492919921875
719	0.64697265625	24.0861399391883	0.000153533935546875	0.6468505859375
720	0.64453125	24.1105399391267	0.000150634765625	0.644378662109375
721	0.64208984375	24.1349399390651	0.000148651123046875	0.641998291015625
722	0.6396484375	24.1593399390035	0.00014642333984375	0.63958740234375
723	0.63720703125	24.1837399389419	0.000143524169921875	0.637054443359375
724	0.634765625	24.2081399388803	0.0001412353515625	0.6346435546875
725	0.63232421875	24.2325399388187	0.0001376953125	0.632293701171875
726	0.6298828125	24.2569399387571	0.00013623046875	0.629852294921875
727	0.62744140625	24.2813399386955	0.000133697509765625	0.62738037109375
728	0.625	24.3057399386339	0.000130950927734375	0.624908447265625
729	0.62255859375	24.3301399385723	0.000129791259765625	0.622467041015625
730	0.6201171875	24.3545399385107	0.00012713623046875	0.620025634765625
731	0.61767578125	24.3789399384491	0.000125091552734375	0.617584228515625
732	0.615234375	24.4033399383875	0.000122222900390625	0.615142822265625
733	0.61279296875	24.4277399383259	0.000120574951171875	0.612701416015625
734	0.6103515625	24.4521399382643	0.00011871337890625	0.6102294921875
735	0.60791015625	24.4765399382027	0.00011578369140625	0.60784912109375
736	0.60546875	24.5009399381411	0.000114349365234375	0.60540771484375
737	0.60302734375	24.5253399380795	0.00011273193359375	0.6029052734375
738	0.6005859375	24.5497399380179	0.000111419677734375	0.600433349609375
739	0.59814453125	24.5741399379563	0.000109375	0.59808349609375
740	0.595703125	24.5985399378947	0.000107513427734375	0.595611572265625
741	0.59326171875	24.6229399378331	0.000105194091796875	0.593170166015625
742	0.5908203125	24.6473399377714	0.00010333251953125	0.590728759765625
743	0.58837890625	24.6717399377098	0.000101837158203125	0.588287353515625
744	0.5859375	24.6961399376482	0.000100128173828125	0.585845947265625
745	0.58349609375	24.7205399375866	9.85107421875E-05	0.58343505859375
746	0.5810546875	24.744939937525	9.7137451171875E-05	0.581024169921875
747	0.57861328125	24.7693399374634	9.527587890625E-05	0.57855224609375
748	0.576171875	24.7937399374018	9.3170166015625E-05	0.576171875
749	0.57373046875	24.8181399373402	9.1522216796875E-05	0.57366943359375
750	0.5712890625	24.8425399372786	9.039306640625E-05	0.571044921875
751	0.56884765625	24.866939937217	8.843994140625E-05	0.56866455078125
752	0.56640625	24.8913399371554	8.7890625E-05	0.56622314453125
753	0.56396484375	24.9157399370938	8.5968017578125E-05	0.56378173828125
754	0.5615234375	24.9401399370322	8.526611328125E-05	0.561370849609375
755	0.55908203125	24.9645399369706	8.331298828125E-05	0.5589599609375
756	0.556640625	24.988939936909	8.197021484375E-05	0.55645751953125
757	0.55419921875	25.0133399368474	8.0963134765625E-05	0.554046630859375
758	0.5517578125	25.0377399367858	7.9803466796875E-05	0.551666259765625
759	0.54931640625	25.0621399367242	7.891845703125E-05	0.549163818359375
760	0.546875	25.0865399366626	7.720947265625E-05	0.5467529296875
761	0.54443359375	25.110939936601	7.6080322265625E-05	0.54425048828125
762	0.5419921875	25.1353399365394	7.476806640625E-05	0.541839599609375
763	0.53955078125	25.1597399364778	7.3486328125E-05	0.5394287109375
764	0.537109375	25.1841399364162	7.2723388671875E-05	0.536956787109375
765	0.53466796875	25.2085399363546	7.1929931640625E-05	0.53448486328125
766	0.5322265625	25.232939936293	7.1319580078125E-05	0.5321044921875
767	0.52978515625	25.2573399362313	7.0159912109375E-05	0.52960205078125
768	0.52734375	25.2817399361697	6.9183349609375E-05	0.527130126953125
769	0.52490234375	25.3061399361081	6.7108154296875E-05	0.52471923828125
770	0.5224609375	25.3305399360465	6.6375732421875E-05	0.52227783203125
771	0.52001953125	25.3549399359849	6.5399169921875E-05	0.5198974609375
772	0.517578125	25.3793399359233	6.427001953125E-05	0.517364501953125
773	0.51513671875	25.4037399358617	6.3201904296875E-05	0.51507568359375
774	0.5126953125	25.4281399358001	6.2255859375E-05	0.512603759765625
775	0.51025390625	25.4525399357385	6.1279296875E-05	0.5101318359375
776	0.5078125	25.4769399356769	6.0211181640625E-05	0.50775146484375
777	0.50537109375	25.5013399356153	5.877685546875E-05	0.505279541015625
778	0.5029296875	25.5257399355537	5.8502197265625E-05	0.502716064453125
779	0.50048828125	25.5501399354921	5.89599609375E-05	0.500335693359375
780	0.498046875	25.5745399354305	5.7525634765625E-05	0.4979248046875
781	0.49560546875	25.5989399353689	5.6549072265625E-05	0.495513916015625
782	0.4931640625	25.6233399353073	5.60302734375E-05	0.493072509765625
783	0.49072265625	25.6477399352457	5.4901123046875E-05	0.490570068359375
784	0.48828125	25.6721399351841	5.4290771484375E-05	0.488128662109375
785	0.48583984375	25.6965399351225	5.3131103515625E-05	0.4857177734375
786	0.4833984375	25.7209399350609	5.316162109375E-05	0.4832763671875
787	0.48095703125	25.7453399349993	5.18798828125E-05	0.4808349609375
788	0.478515625	25.7697399349377	5.0506591796875E-05	0.4783935546875
789	0.47607421875	25.7941399348761	5.0750732421875E-05	0.47589111328125
790	0.4736328125	25.8185399348145	4.8675537109375E-05	0.473541259765625
791	0.47119140625	25.8429399347528	4.9560546875E-05	0.4710693359375
792	0.46875	25.8673399346912	4.81353759765625E-05	0.468597412109375
793	0.46630859375	25.8917399346296	4.78607177734375E-05	0.4661865234375
794	0.4638671875	25.916139934568	4.68597412109375E-05	0.463775634765625
795	0.46142578125	25.9405399345064	4.7021484375E-05	0.461334228515625
796	0.458984375	25.9649399344448	4.6575927734375E-05	0.4588623046875
797	0.45654296875	25.9893399343832	4.532470703125E-05	0.4564208984375
798	0.4541015625	26.0137399343216	4.503173828125E-05	0.45404052734375
799	0.45166015625	26.03813993426	4.41070556640625E-05	0.451629638671875
800	0.44921875	26.0625399341984	4.422607421875E-05	0.449188232421875
801	0.44677734375	26.0869399341368	4.31121826171875E-05	0.4466552734375
802	0.4443359375	26.1113399340752	4.25872802734375E-05	0.44427490234375
803	0.44189453125	26.1357399340136	4.202880859375E-05	0.44183349609375
804	0.439453125	26.160139933952	4.15283203125E-05	0.439361572265625
805	0.43701171875	26.1845399338904	4.11285400390625E-05	0.436920166015625
806	0.4345703125	26.2089399338288	3.97430419921875E-05	0.434478759765625
807	0.43212890625	26.2333399337672	4.0228271484375E-05	0.43206787109375
808	0.4296875	26.2577399337056	3.8580322265625E-05	0.42962646484375
809	0.42724609375	26.282139933644	3.85498046875E-05	0.427154541015625
810	0.4248046875	26.3065399335824	3.834228515625E-05	0.424774169921875
811	0.42236328125	26.3309399335208	3.73687744140625E-05	0.422332763671875
812	0.419921875	26.3553399334592	3.697509765625E-05	0.4197998046875
813	0.41748046875	26.3797399333976	3.621826171875E-05	0.417388916015625
814	0.4150390625	26.404139933336	3.6517333984375E-05	0.41497802734375
815	0.41259765625	26.4285399332744	3.59405517578125E-05	0.412567138671875
816	0.41015625	26.4529399332127	3.5650634765625E-05	0.4100341796875
817	0.40771484375	26.4773399331511	3.453369140625E-05	0.407684326171875
818	0.4052734375	26.5017399330895	3.36639404296875E-05	0.405242919921875
819	0.40283203125	26.5261399330279	3.36883544921875E-05	0.402801513671875
820	0.400390625	26.5505399329663	3.32275390625E-05	0.400299072265625
821	0.39794921875	26.5749399329047	3.28643798828125E-05	0.397857666015625
822	0.3955078125	26.5993399328431	3.2647705078125E-05	0.39544677734375
823	0.39306640625	26.6237399327815	3.226318359375E-05	0.39306640625
824	0.390625	26.6481399327199	3.15582275390625E-05	0.39056396484375
825	0.38818359375	26.6725399326583	3.15460205078125E-05	0.388092041015625
826	0.3857421875	26.6969399325967	3.07708740234375E-05	0.38568115234375
827	0.38330078125	26.7213399325351	2.98614501953125E-05	0.383270263671875
828	0.380859375	26.7457399324735	3.01300048828125E-05	0.38079833984375
829	0.37841796875	26.7701399324119	2.90771484375E-05	0.37835693359375
830	0.3759765625	26.7945399323503	2.930908203125E-05	0.375946044921875
831	0.37353515625	26.8189399322887	2.8839111328125E-05	0.373504638671875
832	0.37109375	26.8433399322271	2.84698486328125E-05	0.3709716796875
833	0.36865234375	26.8677399321655	2.73406982421875E-05	0.368560791015625
834	0.3662109375	26.8921399321039	2.7008056640625E-05	0.366180419921875
835	0.36376953125	26.9165399320423	2.7392578125E-05	0.36370849609375
836	0.361328125	26.9409399319807	2.6641845703125E-05	0.361236572265625
837	0.35888671875	26.9653399319191	2.64739990234375E-05	0.35882568359375
838	0.3564453125	26.9897399318575	2.5408935546875E-05	0.356353759765625
839	0.35400390625	27.0141399317959	2.55401611328125E-05	0.353912353515625
840	0.3515625	27.0385399317342	2.5140380859375E-05	0.351531982421875
841	0.34912109375	27.0629399316726	2.5018310546875E-05	0.349090576171875
842	0.3466796875	27.087339931611	2.49176025390625E-05	0.34661865234375
843	0.34423828125	27.1117399315494	2.42340087890625E-05	0.344207763671875
844	0.341796875	27.1361399314878	2.40997314453125E-05	0.341796875
845	0.33935546875	27.1605399314262	2.33673095703125E-05	0.33929443359375
846	0.3369140625	27.1849399313646	2.366943359375E-05	0.33685302734375
847	0.33447265625	27.209339931303	2.261962890625E-05	0.334442138671875
848	0.33203125	27.2337399312414	2.27142333984375E-05	0.33203125
849	0.32958984375	27.2581399311798	2.1990966796875E-05	0.32958984375
850	0.3271484375	27.2825399311182	2.147216796875E-05	0.32708740234375
851	0.32470703125	27.3069399310566	2.1270751953125E-05	0.32470703125
852	0.322265625	27.331339930995	2.04345703125E-05	0.322235107421875
853	0.31982421875	27.3557399309334	2.08282470703125E-05	0.319793701171875
854	0.3173828125	27.3801399308718	1.96807861328125E-05	0.31732177734375
855	0.31494140625	27.4045399308102	1.97723388671875E-05	0.31494140625
856	0.3125	27.4289399307486	1.9219970703125E-05	0.3125
857	0.31005859375	27.453339930687	1.86767578125E-05	0.30999755859375
858	0.3076171875	27.4777399306254	1.86492919921875E-05	0.3076171875
859	0.30517578125	27.5021399305638	1.815185546875E-05	0.305145263671875
860	0.302734375	27.5265399305022	1.7877197265625E-05	0.302734375
861	0.30029296875	27.5509399304406	1.68975830078125E-05	0.300262451171875
862	0.2978515625	27.575339930379	1.72882080078125E-05	0.29779052734375
863	0.29541015625	27.5997399303174	1.6986083984375E-05	0.29534912109375
864	0.29296875	27.6241399302558	1.668701171875E-05	0.292938232421875
865	0.29052734375	27.6485399301941	1.6510009765625E-05	0.290557861328125
866	0.2880859375	27.6729399301325	1.52374267578125E-05	0.288055419921875
867	0.28564453125	27.6973399300709	1.5704345703125E-05	0.285675048828125
868	0.283203125	27.7217399300093	1.492919921875E-05	0.283172607421875
869	0.28076171875	27.7461399299477	1.51885986328125E-05	0.280792236328125
870	0.2783203125	27.7705399298861	1.4276123046875E-05	0.27825927734375
871	0.27587890625	27.7949399298245	1.434326171875E-05	0.275848388671875
872	0.2734375	27.8193399297629	1.38336181640625E-05	0.2734375
873	0.27099609375	27.8437399297013	1.3763427734375E-05	0.27099609375
874	0.2685546875	27.8681399296397	1.3818359375E-05	0.2685546875
875	0.26611328125	27.8925399295781	1.26495361328125E-05	0.266082763671875
876	0.263671875	27.9169399295165	1.282958984375E-05	0.263671875
877	0.26123046875	27.9413399294549	1.1883544921875E-05	0.261260986328125
878	0.2587890625	27.9657399293933	1.20941162109375E-05	0.2587890625
879	0.25634765625	27.9901399293317	1.1431884765625E-05	0.25634765625
880	0.25390625	28.0145399292701	1.0858154296875E-05	0.253936767578125
881	0.25146484375	28.0389399292085	1.10443115234375E-05	0.251434326171875
882	0.2490234375	28.0633399291469	1.01898193359375E-05	0.249053955078125
883	0.24658203125	28.0877399290853	1.05316162109375E-05	0.24658203125
884	0.244140625	28.1121399290237	9.63134765625E-06	0.244232177734375
885	0.24169921875	28.1365399289621	9.66796875E-06	0.24169921875
886	0.2392578125	28.1609399289005	9.1033935546875E-06	0.2392578125
887	0.23681640625	28.1853399288389	8.782958984375E-06	0.236785888671875
888	0.234375	28.2097399287773	8.770751953125E-06	0.23443603515625
889	0.23193359375	28.2341399287156	8.0718994140625E-06	0.2318115234375
890	0.2294921875	28.258539928654	8.2061767578125E-06	0.2293701171875
891	0.22705078125	28.2829399285924	7.427978515625E-06	0.226898193359375
892	0.224609375	28.3073399285308	7.9559326171875E-06	0.224456787109375
893	0.22216796875	28.3317399284692	7.03125E-06	0.2220458984375
894	0.2197265625	28.3561399284076	6.8817138671875E-06	0.2196044921875
895	0.21728515625	28.380539928346	6.2896728515625E-06	0.2171630859375
896	0.21484375	28.4049399282844	5.96923828125E-06	0.21478271484375
897	0.21240234375	28.4293399282228	5.7769775390625E-06	0.2122802734375
898	0.2099609375	28.4537399281612	5.010986328125E-06	0.2098388671875
899	0.20751953125	28.4781399280996	5.023193359375E-06	0.207427978515625
900	0.205078125	28.502539928038	4.3426513671875E-06	0.204986572265625
901	0.20263671875	28.5269399279764	4.27825927734375E-06	0.202606201171875
902	0.2001953125	28.5513399279148	3.876953125E-06	0.2001953125
903	0.19775390625	28.5757399278532	3.25286865234375E-06	0.19769287109375
904	0.1953125	28.6001399277916	3.3612060546875E-06	0.195281982421875
905	0.19287109375	28.62453992773	2.7587890625E-06	0.192840576171875
906	0.1904296875	28.6489399276684	2.5128173828125E-06	0.1904296875
907	0.18798828125	28.6733399276068	1.97998046875E-06	0.187957763671875
908	0.185546875	28.6977399275452	2.04437255859375E-06	0.185546875
909	0.18310546875	28.7221399274836	1.50238037109375E-06	0.18310546875
910	0.1806640625	28.746539927422	1.324462890625E-06	0.180755615234375
911	0.17822265625	28.7709399273604	1.19873046875E-06	0.178253173828125
912	0.17578125	28.7953399272988	3.3203125E-07	0.17578125
913	0.17333984375	28.8197399272372	6.7626953125E-07	0.173370361328125
914	0.1708984375	28.8441399271755	-1.5838623046875E-07	0.1708984375
915	0.16845703125	28.8685399271139	6.2255859375E-08	0.168487548828125
916	0.166015625	28.8929399270523	-9.4146728515625E-07	0.166015625
917	0.16357421875	28.9173399269907	-8.892822265625E-07	0.163818359375
918	0.1611328125	28.9417399269291	-1.162109375E-06	0.1612548828125
919	0.15869140625	28.9661399268675	-1.77978515625E-06	0.1590576171875
920	0.15625	28.9905399268059	-1.69281005859375E-06	0.156494140625
921	0.15380859375	29.0149399267443	-2.43438720703125E-06	0.15411376953125
922	0.1513671875	29.0393399266827	-2.2283935546875E-06	0.151824951171875
923	0.14892578125	29.0637399266211	-3.0224609375E-06	0.149261474609375
924	0.146484375	29.0881399265595	-3.16619873046875E-06	0.146514892578125
925	0.14404296875	29.1125399264979	-3.5211181640625E-06	0.144134521484375
926	0.1416015625	29.1369399264363	-3.95233154296875E-06	0.141754150390625
927	0.13916015625	29.1613399263747	-4.16290283203125E-06	0.13934326171875
928	0.13671875	29.1857399263131	-4.77294921875E-06	0.136871337890625
929	0.13427734375	29.2101399262515	-4.62646484375E-06	0.134368896484375
930	0.1318359375	29.2345399261899	-5.4595947265625E-06	0.131927490234375
931	0.12939453125	29.2589399261283	-5.2459716796875E-06	0.129486083984375
932	0.126953125	29.2833399260667	-6.0455322265625E-06	0.126983642578125
933	0.12451171875	29.3077399260051	-6.2103271484375E-06	0.124603271484375
934	0.1220703125	29.3321399259435	-6.488037109375E-06	0.12213134765625
935	0.11962890625	29.3565399258819	-7.159423828125E-06	0.1197509765625
936	0.1171875	29.3809399258203	-6.8756103515625E-06	0.11724853515625
937	0.11474609375	29.4053399257587	-7.7789306640625E-06	0.114837646484375
938	0.1123046875	29.429739925697	-7.4737548828125E-06	0.112396240234375
939	0.10986328125	29.4541399256354	-8.33740234375E-06	0.109954833984375
940	0.107421875	29.4785399255738	-8.4136962890625E-06	0.1075439453125
941	0.10498046875	29.5029399255122	-8.6944580078125E-06	0.1051025390625
942	0.1025390625	29.5273399254506	-9.2315673828125E-06	0.10272216796875
943	0.10009765625	29.551739925389	-9.161376953125E-06	0.100250244140625
944	0.09765625	29.5761399253274	-9.8724365234375E-06	0.09783935546875
945	0.09521484375	29.6005399252658	-9.552001953125E-06	0.095367431640625
946	0.0927734375	29.6249399252042	-1.025390625E-05	0.092987060546875
947	0.09033203125	29.6493399251426	-1.03240966796875E-05	0.09051513671875
948	0.087890625	29.673739925081	-1.08673095703125E-05	0.08807373046875
949	0.08544921875	29.6981399250194	-1.119384765625E-05	0.08563232421875
950	0.0830078125	29.7225399249578	-1.124267578125E-05	0.083221435546875
951	0.08056640625	29.7469399248962	-1.18927001953125E-05	0.080780029296875
952	0.078125	29.7713399248346	-1.16851806640625E-05	0.078277587890625
953	0.07568359375	29.795739924773	-1.25030517578125E-05	0.0758056640625
954	0.0732421875	29.8201399247114	-1.24420166015625E-05	0.073455810546875
955	0.07080078125	29.8445399246498	-1.29364013671875E-05	0.071014404296875
956	0.068359375	29.8689399245882	-1.32476806640625E-05	0.068603515625
957	0.06591796875	29.8933399245266	-1.341552734375E-05	0.066192626953125
958	0.0634765625	29.917739924465	-1.39923095703125E-05	0.063690185546875
959	0.06103515625	29.9421399244034	-1.3873291015625E-05	0.061248779296875
960	0.05859375	29.9665399243418	-1.461181640625E-05	0.058807373046875
961	0.05615234375	29.9909399242802	-1.4483642578125E-05	0.056427001953125
962	0.0537109375	30.0153399242186	-1.5203857421875E-05	0.053985595703125
963	0.05126953125	30.0397399241569	-1.5338134765625E-05	0.051483154296875
964	0.048828125	30.0641399240953	-1.5618896484375E-05	0.048974609375
965	0.04638671875	30.0885399240337	-1.60919189453125E-05	0.04654541015625
966	0.0439453125	30.1129399239721	-1.600341796875E-05	0.044110107421875
967	0.04150390625	30.1373399239105	-1.68243408203125E-05	0.041656494140625
968	0.0390625	30.1617399238489	-1.65283203125E-05	0.039208984375
969	0.03662109375	30.1861399237873	-1.7254638671875E-05	0.0367889404296875
970	0.0341796875	30.2105399237257	-1.72119140625E-05	0.034344482421875
971	0.03173828125	30.2349399236641	-1.76239013671875E-05	0.0319122314453125
972	0.029296875	30.2593399236025	-1.80877685546875E-05	0.02945556640625
973	0.02685546875	30.2837399235409	-1.8121337890625E-05	0.0270355224609375
974	0.0244140625	30.3081399234793	-1.873779296875E-05	0.0246124267578125
975	0.02197265625	30.3325399234177	-1.84844970703125E-05	0.0221405029296875
976	0.01953125	30.3569399233561	-1.9329833984375E-05	0.0196990966796875
977	0.01708984375	30.3813399232945	-1.92657470703125E-05	0.0172576904296875
978	0.0146484375	30.4057399232329	-1.97113037109375E-05	0.0148101806640625
979	0.01220703125	30.4301399231713	-1.99798583984375E-05	0.01236572265625
980	0.009765625	30.4545399231097	-2.01416015625E-05	0.00994873046875
981	0.00732421875	30.4789399230481	-2.08282470703125E-05	0.00750732421875
982	0.0048828125	30.5033399229865	-2.06634521484375E-05	0.00505676269531249
983	0.00244140625	30.5277399229249	-2.14324951171875E-05	0.0026275634765625
984	0	30.5521399228633	-2.12799072265625E-05	0.000180053710937503
985	0.00244140625	30.5765399228017	-2.1343994140625E-05	0.0026214599609375
986	0.0048828125	30.6009399227401	-2.09625244140625E-05	0.0050506591796875
