Index	Time (s)	WE(1).Potential (V)	Corrected time (s)	dWE(1).Potential/dt (V/s)	OCP value (V)
1	31.6148469201802	0.161590576171875	0	0	0.169211294136795
2	31.7148469199277	0.16314697265625	0.0999999997475243	0.0155639052391052	
3	31.8148469196752	0.163330078125	0.199999999495049	-0.00503538129851222	
4	31.9148469194228	0.162445068359375	0.299999999242573	-0.0131733706220984	
5	32.0148469191703	0.163116455078125	0.399999998990097	0.0232441332191229	
6	32.1148469189178	0.1634521484375	0.499999998737621	-0.00462848180904984	
7	32.2148469186653	0.164581298828125	0.599999998485146	0.0190225504338741	
8	32.3148469184129	0.166046142578125	0.69999999823267	0.0148009685799479	
9	32.4148469181604	0.1656494140625	0.799999997980194	-0.0205992870032787	
10	32.5148469179079	0.16558837890625	0.899999997727718	0.00839230231940746	
11	32.6148469176554	0.163909912109375	0.999999997475243	-0.0313821248710155	
12	32.714846917403	0.16259765625	1.09999999722277	-0.00467934412881732	
13	32.8148469171505	0.162261962890625	1.19999999697029	0.00356037053279579	
14	32.914846916898	0.163055419921875	1.29999999671782	0.0140888951718807	
15	33.0148469166455	0.1627197265625	1.39999999646534	-0.016530292108655	
16	33.114846916393	0.163787841796875	1.49999999621286	0.026143291965127	
17	33.2148469161406	0.1649169921875	1.59999999596039	0.00712074106559157	
18	33.3148469158881	0.16522216796875	1.69999999570791	-0.00401813257485628	
19	33.4148469156356	0.164520263671875	1.79999999545544	-0.0126647464931011	
20	33.5148469153831	0.16400146484375	1.89999999520296	-0.000305174617096782	
21	33.6148469151307	0.163482666015625	1.99999999495049	-0.0057983179576695	
22	33.7148469148782	0.165679931640625	2.09999999469801	0.0446063578128815	
23	33.8148469146257	0.16546630859375	2.19999999444553	-0.0312803983688354	
24	33.9148469143732	0.16790771484375	2.29999999419306	0.0545753948390484	
25	34.0148469141208	0.1673583984375	2.39999999394058	-0.039265800267458	
26	34.1148469138683	0.165740966796875	2.49999999368811	-0.0151061434298754	
27	34.2148469136158	0.1656494140625	2.59999999343563	0.0153604559600353	
28	34.3148469133633	0.16473388671875	2.69999999318316	-0.0211079102009535	
29	34.4148469131109	0.164703369140625	2.79999999293068	0.00981645006686449	
30	34.5148469128584	0.16436767578125	2.8999999926782	-0.00885006412863731	
31	34.6148469126059	0.166229248046875	2.99999999242573	0.0379433780908585	
32	34.7148469123534	0.166168212890625	3.09999999217325	-0.0239562075585127	
33	34.814846912101	0.16497802734375	3.19999999192078	-0.0149026941508055	
34	34.9148469118485	0.16485595703125	3.2999999916683	0.011444048024714	
35	35.014846911596	0.1651611328125	3.39999999141583	0.00305174617096782	
36	35.1148469113435	0.163970947265625	3.49999999116335	-0.0257872547954321	
37	35.2148469110911	0.162322998046875	3.59999999091087	-0.0153095936402678	
38	35.3148469108386	0.164093017578125	3.6999999906584	0.0477089658379555	
39	35.4148469105861	0.16375732421875	3.79999999040592	-0.0322976484894753	
40	35.5148469103336	0.1624755859375	3.89999999015345	-0.0136819956824183	
41	35.6148469100812	0.162506103515625	3.99999998990097	0.0143940690904856	
42	35.7148469098287	0.162200927734375	4.0999999896485	-0.0102233495563269	
43	35.8148469095762	0.162200927734375	4.19999998939602	0.00366209540516138	
44	35.9148469093237	0.160430908203125	4.29999998914354	-0.0334674827754498	
45	36.0148469090713	0.162384033203125	4.39999998889107	0.0564573034644127	
46	36.1148469088188	0.162078857421875	4.49999998863859	-0.0342812836170197	
47	36.2148469085663	0.161407470703125	4.59999998838612	-0.00223794719204307	
48	36.3148469083138	0.16204833984375	4.69999998813364	0.0185647886246443	
49	36.4148469080613	0.1595458984375	4.79999998788116	-0.0555926412343979	
50	36.5148469078089	0.161773681640625	4.89999998762869	0.0721737965941429	
51	36.6148469075564	0.159637451171875	4.99999998737621	-0.0734962224960327	
52	36.7148469073039	0.16015625	5.09999998712374	0.0418597832322121	
53	36.8148469070514	0.159454345703125	5.19999998687126	-0.026041567325592	
54	36.914846906799	0.161712646484375	5.29999998661879	0.0513201989233494	
55	37.0148469065465	0.1602783203125	5.39999998636631	-0.0549822933971882	
56	37.114846906294	0.16180419921875	5.49999998611383	0.0522357225418091	
57	37.2148469060415	0.160675048828125	5.59999998586136	-0.0432839319109917	
58	37.3148469057891	0.161956787109375	5.69999998560888	0.0417580604553223	
59	37.4148469055366	0.1619873046875	5.79999998535641	-0.0181578900665045	
60	37.5148469052841	0.161041259765625	5.89999998510393	-0.0134276831522584	
61	37.6148469050316	0.161529541015625	5.99999998485146	0.0200906619429588	
62	37.7148469047792	0.161407470703125	6.09999998459898	-0.0110880108550191	
63	37.8148469045267	0.16168212890625	6.1999999843465	0.00808712746948004	
64	37.9148469042742	0.16168212890625	6.29999998409403	-0.00361123308539391	
65	38.0148469040217	0.162109375	6.39999998384155	0.00874833948910236	
66	38.1148469037693	0.16278076171875	6.49999998358908	0.00732419081032276	
67	38.2148469035168	0.160308837890625	6.5999999833366	-0.0517270974814892	
68	38.3148469032643	0.16094970703125	6.69999998308413	0.042826171964407	
69	38.4148469030118	0.16168212890625	6.79999998283165	-0.00228880974464118	
70	38.5148469027594	0.161224365234375	6.89999998257917	-0.0148009685799479	
71	38.6148469025069	0.1607666015625	6.9999999823267	-0.000610349234193563	
72	38.7148469022544	0.162353515625	7.09999998207422	0.032907996326685	
73	38.8148469020019	0.16400146484375	7.19999998182175	0.0101724872365594	
74	38.9148469017495	0.16162109375	7.29999998156927	-0.0575762763619423	
75	39.014846901497	0.162109375	7.3999999813168	0.042215820401907	
76	39.1148469012445	0.16107177734375	7.49999998106432	-0.0326536856591702	
77	39.214846900992	0.161468505859375	7.59999998081184	0.0210061855614185	
78	39.3148469007396	0.162078857421875	7.69999998055937	0.00310260872356594	
79	39.4148469004871	0.16253662109375	7.79999998030689	0.00259398436173797	
80	39.5148469002346	0.161285400390625	7.89999998005442	-0.0262450166046619	
81	39.6148468999821	0.163665771484375	7.99999997980194	0.0597633607685566	
82	39.7148468997297	0.1627197265625	8.09999997954947	-0.0492857024073601	
83	39.8148468994772	0.1602783203125	8.19999997929699	-0.0257872547954321	
84	39.9148468992247	0.16278076171875	8.29999997904451	0.0712074115872383	
85	40.0148468989722	0.161407470703125	8.39999997879204	-0.0625099316239357	
86	40.1148468987197	0.160675048828125	8.49999997853956	0.0109354238957167	
87	40.2148468984673	0.160186767578125	8.59999997828709	-0.00498451897874475	
88	40.3148468982148	0.16143798828125	8.69999997803461	0.026194155216217	
89	40.4148468979623	0.160797119140625	8.79999997778214	-0.0279743392020464	
90	40.5148468977098	0.15972900390625	8.89999997752966	-0.00793454051017761	
91	40.6148468974574	0.16168212890625	8.99999997727718	0.0461322292685509	
92	40.7148468972049	0.160614013671875	9.09999997702471	-0.045928779989481	
93	40.8148468969524	0.1602783203125	9.19999997677223	0.0128173343837261	
94	40.9148468966999	0.16015625	9.29999997651976	-0.00188191013876349	
95	41.0148468964475	0.1610107421875	9.39999997626728	0.0159708056598902	
96	41.114846896195	0.162078857421875	9.49999997601481	0.00920610129833221	
97	41.2148468959425	0.16253662109375	9.59999997576233	-0.00122069846838713	
98	41.31484689569	0.1624755859375	9.69999997550985	-0.00289915897883475	
99	41.4148468954376	0.1622314453125	9.79999997525738	-0.00223794719204307	
100	41.5148468951851	0.162811279296875	9.8999999750049	0.013275096192956	
101	41.6148468949326	0.161773681640625	9.99999997475243	-0.0266010537743568	
102	41.7148468946801	0.160797119140625	10.0999999745	-0.00386554514989257	
103	41.8148468944277	0.162384033203125	10.1999999742475	0.0370278544723988	
104	41.9148468941752	0.162933349609375	10.299999973995	-0.0116983605548739	
105	42.0148468939227	0.16192626953125	10.3999999737425	-0.0195820387452841	
106	42.1148468936702	0.16259765625	10.49999997349	0.025888979434967	
107	42.2148468934178	0.162933349609375	10.5999999732376	-0.00503538129851222	
108	42.3148468931653	0.162506103515625	10.6999999729851	-0.00951127521693707	
109	42.4148468929128	0.160980224609375	10.7999999727326	-0.0218708477914333	
110	42.5148468926603	0.16058349609375	10.8999999724801	0.00910437572747469	
111	42.6148468924079	0.16131591796875	10.9999999722277	0.0129699213430285	
112	42.7148468921554	0.160888671875	11.0999999719752	-0.0177001282572746	
113	42.8148468919029	0.1605224609375	11.1999999717227	0.000712074106559157	
114	42.9148468916504	0.161346435546875	11.2999999714702	0.0179544407874346	
115	43.014846891398	0.1605224609375	11.3999999712178	-0.0259398426860571	
116	43.1148468911455	0.16168212890625	11.4999999709653	0.0336200706660748	
117	43.214846890893	0.1614990234375	11.5999999707128	-0.019632900133729	
118	43.3148468906405	0.1612548828125	11.6999999704603	0.00152587308548391	
119	43.414846890388	0.16046142578125	11.7999999702079	-0.0123087093234062	
120	43.5148468901356	0.158477783203125	11.8999999699554	-0.0279234778136015	
121	43.6148468898831	0.15911865234375	11.9999999697029	0.0322467833757401	
122	43.7148468896306	0.161102294921875	12.0999999694504	0.0222777463495731	
123	43.8148468893781	0.158203125	12.199999969198	-0.0741574317216873	
124	43.9148468891257	0.160614013671875	12.2999999689455	0.0846350938081741	
125	44.0148468888732	0.16082763671875	12.399999968693	-0.0338743813335896	
126	44.1148468886207	0.1610107421875	12.4999999684405	0.00890092644840479	
127	44.2148468883682	0.160491943359375	12.5999999681881	-0.0109354238957167	
128	44.3148468881158	0.16082763671875	12.6999999679356	0.0128173343837261	
129	44.4148468878633	0.160980224609375	12.7999999676831	-0.00284829642623663	
130	44.5148468876108	0.161529541015625	12.8999999674306	0.00940955057740211	
131	44.6148468873583	0.162353515625	12.9999999671782	0.00920610129833221	
132	44.7148468871059	0.160369873046875	13.0999999669257	-0.0441485941410065	
133	44.8148468868534	0.160369873046875	13.1999999666732	0.025888979434967	
134	44.9148468866009	0.157684326171875	13.2999999664207	-0.055846955627203	
135	45.0148468863484	0.15802001953125	13.3999999661683	0.0374856144189835	
136	45.114846886096	0.158538818359375	13.4999999659158	-0.0033569207880646	
137	45.2148468858435	0.156341552734375	13.5999999656633	-0.0452167056500912	
138	45.314846885591	0.157135009765625	13.6999999654108	0.0419106483459473	
139	45.4148468853385	0.1580810546875	13.7999999651583	0.000762936542741954	
140	45.5148468850861	0.15692138671875	13.8999999649059	-0.0296528004109859	
141	45.6148468848336	0.157806396484375	13.9999999646534	0.032907996326685	
142	45.7148468845811	0.15631103515625	14.0999999644009	-0.0416054725646973	
143	45.8148468843286	0.155548095703125	14.1999999641484	0.00640866719186306	
144	45.9148468840762	0.15802001953125	14.299999963896	0.0492348372936249	
145	46.0148468838237	0.157012939453125	14.3999999636435	-0.0498451888561249	
146	46.1148468835712	0.158111572265625	14.499999963391	0.0401304624974728	
147	46.2148468833187	0.15673828125	14.5999999631385	-0.0413511618971825	
148	46.3148468830663	0.15875244140625	14.6999999628861	0.0566098913550377	
149	46.4148468828138	0.158416748046875	14.7999999626336	-0.0342304185032845	
150	46.5148468825613	0.158050537109375	14.8999999623811	0.00391640746966004	
151	46.6148468823088	0.157989501953125	14.9999999621286	0.00203449744731188	
152	46.7148468820563	0.157989501953125	15.0999999618762	-0.00050862436182797	
153	46.8148468818039	0.157318115234375	15.1999999616237	-0.0125121595337987	
154	46.9148468815514	0.1607666015625	15.2999999613712	0.0710548236966133	
155	47.0148468812989	0.159942626953125	15.3999999611187	-0.0575762763619423	
156	47.1148468810464	0.16204833984375	15.4999999608663	0.0597124993801117	
157	47.214846880794	0.16021728515625	15.5999999606138	-0.0608823373913765	
158	47.3148468805415	0.158782958984375	15.6999999603613	0.00208535999991	
159	47.414846880289	0.15777587890625	15.7999999601088	-0.00783281493932009	
160	47.5148468800365	0.158233642578125	15.8999999598564	0.0153604559600353	
161	47.6148468797841	0.157958984375	15.9999999596039	-0.0137328580021858	
162	47.7148468795316	0.159332275390625	16.0999999593514	0.0299071129411459	
163	47.8148468792791	0.1593017578125	16.1999999590989	-0.0174966789782047	
164	47.9148468790266	0.158935546875	16.2999999588465	-0.00178018526639789	
165	48.0148468787742	0.159332275390625	16.399999958594	0.011444048024714	
166	48.1148468785217	0.155792236328125	16.4999999583415	-0.0707496479153633	
167	48.2148468782692	0.15716552734375	16.599999958089	0.0677996277809143	
168	48.3148468780167	0.1585693359375	16.6999999578366	-0.00208535999991	
169	48.4148468777643	0.160186767578125	16.7999999575841	0.0178527142852545	
170	48.5148468775118	0.16094970703125	16.8999999573316	-0.000203449744731188	
171	48.6148468772593	0.16021728515625	16.9999999570791	-0.0169371906667948	
172	48.7148468770068	0.157196044921875	17.0999999568267	-0.0443011820316315	
173	48.8148468767544	0.1580810546875	17.1999999565742	0.049031388014555	
174	48.9148468765019	0.157684326171875	17.2999999563217	-0.0276691652834415	
175	49.0148468762494	0.156982421875	17.3999999560692	-0.00528969336301088	
176	49.1148468759969	0.1578369140625	17.4999999558167	0.0225320588797331	
177	49.2148468757445	0.15692138671875	17.5999999555643	-0.0290933139622211	
178	49.314846875492	0.15753173828125	17.6999999553118	0.0247191432863474	
179	49.4148468752395	0.157257080078125	17.7999999550593	-0.0152078680694103	
180	49.514846874987	0.1578369140625	17.8999999548068	0.0158690810203552	
181	49.6148468747346	0.157684326171875	17.9999999545544	-0.0104776620864868	
182	49.7148468744821	0.157318115234375	18.0999999543019	-0.00300088385120034	
183	49.8148468742296	0.157928466796875	18.1999999540494	0.0149535564705729	
184	49.9148468739771	0.157318115234375	18.2999999537969	-0.019531175494194	
185	50.0148468737247	0.15704345703125	18.3999999535445	0.00411985721439123	
186	50.1148468734722	0.15618896484375	18.499999953292	-0.0144957946613431	
187	50.2148468732197	0.159912109375	18.5999999530395	0.0773109048604965	
188	50.3148468729672	0.157196044921875	18.699999952787	-0.0960791409015656	
189	50.4148468727147	0.1580810546875	18.7999999525346	0.0603228509426117	
190	50.5148468724623	0.1571044921875	18.8999999522821	-0.0372821651399136	
191	50.6148468722098	0.1561279296875	18.9999999520296	-0.00356037053279579	
192	50.7148468719573	0.15582275390625	19.0999999517771	0.00254312180913985	
193	50.8148468717048	0.155731201171875	19.1999999515247	-0.00137328577693552	
194	50.9148468714524	0.156646728515625	19.2999999512722	0.0168354660272598	
195	51.0148468711999	0.158538818359375	19.3999999510197	0.0237018950283527	
196	51.1148468709474	0.1611328125	19.4999999507672	0.0285338275134563	
197	51.2148468706949	0.159393310546875	19.5999999505148	-0.055846955627203	
198	51.3148468704425	0.157989501953125	19.6999999502623	0.00320433359593153	
199	51.41484687019	0.158203125	19.7999999500098	0.0144957946613431	
200	51.5148468699375	0.1568603515625	19.8999999497573	-0.0317890234291553	
201	51.614846869685	0.1573486328125	19.9999999495049	0.0253294929862022	
202	51.7148468694326	0.159515380859375	20.0999999492524	0.029551075771451	
203	51.8148468691801	0.16192626953125	20.1999999489999	0.0205484237521887	
204	51.9148468689276	0.16119384765625	20.2999999487474	-0.0343321450054646	
205	52.0148468686751	0.16119384765625	20.399999948495	0.0165811534970999	
206	52.1148468684227	0.158966064453125	20.4999999482425	-0.0432839319109917	
207	52.2148468681702	0.161163330078125	20.59999994799	0.0662737563252449	
208	52.3148468679177	0.160552978515625	20.6999999477375	-0.0442503206431866	
209	52.4148468676652	0.1605224609375	20.799999947485	0.0138854449614882	
210	52.5148468674128	0.16156005859375	20.8999999472326	0.0173440910875797	
211	52.6148468671603	0.1611328125	20.9999999469801	-0.0200398005545139	
212	52.7148468669078	0.159454345703125	21.0999999467276	-0.0223286096006632	
213	52.8148468666553	0.159698486328125	21.1999999464751	0.022633783519268	
214	52.9148468664029	0.158721923828125	21.2999999462227	-0.0263467412441969	
215	53.0148468661504	0.15826416015625	21.3999999459702	0.00381468283012509	
216	53.1148468658979	0.15997314453125	21.4999999457177	0.0334166213870049	
217	53.2148468656454	0.15936279296875	21.5999999454652	-0.0326536856591702	
218	53.314846865393	0.159759521484375	21.6999999452128	0.0200906619429588	
219	53.4148468651405	0.1600341796875	21.7999999449603	-0.0016275979578495	
220	53.514846864888	0.16058349609375	21.8999999447078	0.00818885210901499	
221	53.6148468646355	0.159698486328125	21.9999999444553	-0.0217182599008083	
222	53.714846864383	0.15997314453125	22.0999999442029	0.0171915031969547	
223	53.8148468641306	0.160125732421875	22.1999999439504	-0.0033569207880646	
224	53.9148468638781	0.159637451171875	22.2999999436979	-0.00981645006686449	
225	54.0148468636256	0.15948486328125	22.3999999434454	0.00340778334066272	
226	54.1148468633731	0.16064453125	22.499999943193	0.0214130859822035	
227	54.2148468631207	0.15924072265625	22.5999999429405	-0.0397744253277779	
228	54.3148468628682	0.160919189453125	22.699999942688	0.0510150231420994	
229	54.4148468626157	0.160369873046875	22.7999999424355	-0.0343321450054646	
230	54.5148468623632	0.158111572265625	22.8999999421831	-0.029398487880826	
231	54.6148468621108	0.157928466796875	22.9999999419306	0.0211587734520435	
232	54.7148468618583	0.1572265625	23.0999999416781	-0.0182596147060394	
233	54.8148468616058	0.15814208984375	23.1999999414256	0.0243631061166525	
234	54.9148468613533	0.159210205078125	23.2999999411732	0.00656125415116549	
235	55.0148468611009	0.15924072265625	23.3999999409207	-0.00885006412863731	
236	55.1148468608484	0.160247802734375	23.4999999406682	0.0216673985123634	
237	55.2148468605959	0.160736083984375	23.5999999404157	-0.00269570923410356	
238	55.3148468603434	0.15960693359375	23.6999999401633	-0.023040683940053	
239	55.414846860091	0.159942626953125	23.7999999399108	0.0209553241729736	
240	55.5148468598385	0.16046142578125	23.8999999396583	0.00183104770258069	
241	55.614846859586	0.160980224609375	23.9999999394058	0.00457761948928237	
242	55.7148468593335	0.16180419921875	24.0999999391533	0.0107828369364142	
243	55.8148468590811	0.162109375	24.1999999389009	-0.00228880974464118	
244	55.9148468588286	0.16229248046875	24.2999999386484	0.00254312180913985	
245	56.0148468585761	0.161285400390625	24.3999999383959	-0.0195820387452841	
246	56.1148468583236	0.16162109375	24.4999999381434	0.0185139272361994	
247	56.2148468580712	0.160400390625	24.599999937891	-0.0296528004109859	
248	56.3148468578187	0.160614013671875	24.6999999376385	0.0192768629640341	
249	56.4148468575662	0.16143798828125	24.799999937386	0.00854488927870989	
250	56.5148468573137	0.16064453125	24.8999999371335	-0.0234475824981928	
251	56.6148468570613	0.1614990234375	24.9999999368811	0.0276691652834415	
252	56.7148468568088	0.16082763671875	25.0999999366286	-0.0249225944280624	
253	56.8148468565563	0.16168212890625	25.1999999363761	0.0263467412441969	
254	56.9148468563038	0.161895751953125	25.2999999361236	-0.00829057674854994	
255	57.0148468560513	0.161285400390625	25.3999999358712	-0.0108336992561817	
256	57.1148468557989	0.160125732421875	25.4999999356187	-0.0134276831522584	
257	57.2148468555464	0.161468505859375	25.5999999353662	0.0361123308539391	
258	57.3148468552939	0.1611328125	25.6999999351137	-0.0256855301558971	
259	57.4148468550414	0.16082763671875	25.7999999348613	0.00279743410646915	
260	57.514846854789	0.16033935546875	25.8999999346088	-0.00651039183139801	
261	57.6148468545365	0.1597900390625	25.9999999343563	-0.00539141846820712	
262	57.714846854284	0.15850830078125	26.0999999341038	-0.0187173765152693	
263	57.8148468540315	0.160369873046875	26.1999999338514	0.0472512021660805	
264	57.9148468537791	0.162384033203125	26.2999999335989	0.0109354238957167	
265	58.0148468535266	0.162109375	26.3999999333464	-0.0223286096006632	
266	58.1148468532741	0.160675048828125	26.4999999330939	-0.01637770421803	
267	58.2148468530216	0.1602783203125	26.5999999328415	0.00854488927870989	
268	58.3148468527692	0.160400390625	26.699999932589	0.00208535999991	
269	58.4148468525167	0.161224365234375	26.7999999323365	0.0123595716431737	
270	58.5148468522642	0.161346435546875	26.899999932084	-0.00696815364062786	
271	58.6148468520117	0.15997314453125	26.9999999318316	-0.0238544829189777	
272	58.7148468517593	0.1593017578125	27.0999999315791	0.00411985721439123	
273	58.8148468515068	0.160888671875	27.1999999313266	0.0323485098779202	
274	58.9148468512543	0.162017822265625	27.2999999310741	-5.0862436182797E-05	
275	59.0148468510018	0.161376953125	27.3999999308217	-0.019632900133729	
276	59.1148468507494	0.161224365234375	27.4999999305692	0.00844316463917494	
277	59.2148468504969	0.1612548828125	27.5999999303167	0.000203449744731188	
278	59.3148468502444	0.15960693359375	27.6999999300642	-0.0310769490897655	
279	59.4148468499919	0.15997314453125	27.7999999298117	0.026041567325592	
280	59.5148468497395	0.15948486328125	27.8999999295593	-0.0187173765152693	
281	59.614846849487	0.16058349609375	27.9999999293068	0.0270588155835867	
282	59.7148468492345	0.160675048828125	28.0999999290543	-0.0127664711326361	
283	59.814846848982	0.161407470703125	28.1999999288018	0.0160216670483351	
284	59.9148468487296	0.16357421875	28.2999999285494	0.0314838476479053	
285	60.0148468484771	0.161651611328125	28.3999999282969	-0.0580849014222622	
286	60.1148468482246	0.160919189453125	28.4999999280444	0.016225116327405	
287	60.2148468479721	0.160491943359375	28.5999999277919	-0.00569659285247326	
288	60.3148468477197	0.1614990234375	28.6999999275395	0.0210061855614185	
289	60.4148468474672	0.1600341796875	28.799999927287	-0.0400287359952927	
290	60.5148468472147	0.16082763671875	28.8999999270345	0.0349933579564095	
291	60.6148468469622	0.1605224609375	28.999999926782	-0.0197346247732639	
292	60.7148468467097	0.159942626953125	29.0999999265296	-0.00442503206431866	
293	60.8148468464573	0.15960693359375	29.1999999262771	-0.000406899489462376	
294	60.9148468462048	0.16131591796875	29.2999999260246	0.0333148948848248	
295	61.0148468459523	0.16107177734375	29.3999999257721	-0.0255329422652721	
296	61.1148468456998	0.1600341796875	29.4999999255197	-0.0104776620864868	
297	61.2148468454474	0.160186767578125	29.5999999252672	0.0140888951718807	
298	61.3148468451949	0.159912109375	29.6999999250147	-0.0102742118760943	
299	61.4148468449424	0.160919189453125	29.7999999247622	0.0221760217100382	
300	61.5148468446899	0.159332275390625	29.8999999245098	-0.0417580604553223	
301	61.6148468444375	0.160675048828125	29.9999999242573	0.0464882664382458	
302	61.714846844185	0.161041259765625	30.0999999240048	-0.0142414821311831	
303	61.8148468439325	0.16064453125	30.1999999237523	-0.0070698787458241	
304	61.91484684368	0.15960693359375	30.2999999234999	-0.0131733706220984	
305	62.0148468434276	0.159210205078125	30.3999999232474	0.00350950821302831	
306	62.1148468431751	0.160186767578125	30.4999999229949	0.0190734136849642	
307	62.2148468429226	0.160247802734375	30.5999999227424	-0.011596635915339	
308	62.3148468426701	0.1611328125	30.69999992249	0.0187682397663593	
309	62.4148468424177	0.1610107421875	30.7999999222375	-0.0123595716431737	
310	62.5148468421652	0.162689208984375	30.899999921985	0.0351459421217442	
311	62.6148468419127	0.160614013671875	30.9999999217325	-0.0580340400338173	
312	62.7148468416602	0.161041259765625	31.09999992148	0.0376382023096085	
313	62.8148468414078	0.16143798828125	31.1999999212276	-0.00462848180904984	
314	62.9148468411553	0.162353515625	31.2999999209751	0.0135802701115608	
315	63.0148468409028	0.162689208984375	31.3999999207226	-0.00320433359593153	
316	63.1148468406503	0.163848876953125	31.4999999204701	0.0203958377242088	
317	63.2148468403979	0.16546630859375	31.5999999202177	0.0172423664480448	
318	63.3148468401454	0.165191650390625	31.6999999199652	-0.0200398005545139	
319	63.4148468398929	0.1636962890625	31.7999999197127	-0.0188191011548042	
320	63.5148468396404	0.163055419921875	31.8999999194602	0.00478106923401356	
321	63.614846839388	0.163238525390625	31.9999999192078	0.00584918027743697	
322	63.7148468391355	0.16351318359375	32.0999999189553	0.000762936542741954	
323	63.814846838883	0.16497802734375	32.1999999187028	0.0242613814771175	
324	63.9148468386305	0.16583251953125	32.2999999184503	-0.00050862436182797	
325	64.014846838378	0.16473388671875	32.3999999181979	-0.0252277683466673	
326	64.1148468381256	0.16497802734375	32.4999999179454	0.0201415251940489	
327	64.2148468378731	0.166229248046875	32.5999999176929	0.01642856746912	
328	64.3148468376206	0.165191650390625	32.6999999174404	-0.0328062698245049	
329	64.4148468373681	0.163726806640625	32.799999917188	-0.0105793867260218	
330	64.5148468371157	0.163177490234375	32.8999999169355	0.00356037053279579	
331	64.6148468368632	0.164581298828125	32.999999916683	0.0272622667253017	
332	64.7148468366107	0.162811279296875	33.0999999164305	-0.0506589859724045	
333	64.8148468363582	0.165802001953125	33.1999999161781	0.0801592022180557	
334	64.9148468361058	0.163909912109375	33.2999999159256	-0.0754798576235771	
335	65.0148468358533	0.1629638671875	33.3999999156731	0.014699243940413	
336	65.1148468356008	0.161407470703125	33.4999999154206	-0.0238036196678877	
337	65.2148468353483	0.162689208984375	33.5999999151682	0.0385028645396233	
338	65.3148468350959	0.162872314453125	33.6999999149157	-0.0167846046388149	
339	65.4148468348434	0.162017822265625	33.7999999146632	-0.0135294077917933	
340	65.5148468345909	0.163543701171875	33.8999999144107	0.0385537259280682	
341	65.6148468343384	0.163116455078125	33.9999999141583	-0.0284829642623663	
342	65.714846834086	0.163055419921875	34.0999999139058	0.00895178876817226	
343	65.8148468338335	0.1632080078125	34.1999999136533	0.00208535999991	
344	65.914846833581	0.163543701171875	34.2999999134008	0.00417071999981999	
345	66.0148468333285	0.161376953125	34.3999999131483	-0.043131347745657	
346	66.1148468330761	0.1632080078125	34.4999999128959	0.0599668137729168	
347	66.2148468328236	0.163726806640625	34.5999999126434	-0.0190734136849642	
348	66.3148468325711	0.16253662109375	34.6999999123909	-0.0217691231518984	
349	66.4148468323186	0.164093017578125	34.7999999121384	0.0441485941410065	
350	66.5148468320662	0.162506103515625	34.899999911886	-0.0512184724211693	
351	66.6148468318137	0.1630859375	34.9999999116335	0.0343321450054646	
352	66.7148468315612	0.163421630859375	35.099999911381	-0.00590004259720445	
353	66.8148468313087	0.164306640625	35.1999999111285	0.0142414821311831	
354	66.9148468310563	0.16357421875	35.2999999108761	-0.022633783519268	
355	67.0148468308038	0.16461181640625	35.3999999106236	0.0305174626410007	
356	67.1148468305513	0.166290283203125	35.4999999103711	0.016225116327405	
357	67.2148468302988	0.165191650390625	35.5999999101186	-0.0362649187445641	
358	67.3148468300463	0.163909912109375	35.6999999098662	-0.0050862436182797	
359	67.4148468297939	0.163665771484375	35.7999999096137	0.00681556668132544	
360	67.5148468295414	0.16314697265625	35.8999999093612	-0.0109354238957167	
361	67.6148468292889	0.163055419921875	35.9999999091087	0.00356037053279579	
362	67.7148468290364	0.162384033203125	36.0999999088563	-0.0129699213430285	
363	67.814846828784	0.162322998046875	36.1999999086038	0.00640866719186306	
364	67.9148468285315	0.163543701171875	36.2999999083513	0.0208535995334387	
365	68.014846828279	0.1640625	36.3999999080988	-0.00493365619331598	
366	68.1148468280265	0.164947509765625	36.4999999078464	0.0142414821311831	
367	68.2148468277741	0.16455078125	36.5999999075939	-0.0158690810203552	
368	68.3148468275216	0.164825439453125	36.6999999073414	0.0126138841733336	
369	68.4148468272691	0.165740966796875	36.7999999070889	0.0122578470036387	
370	68.5148468270166	0.164581298828125	36.8999999068365	-0.0310260858386755	
371	68.6148468267642	0.164886474609375	36.999999906584	0.0221760217100382	
372	68.7148468265117	0.164886474609375	37.0999999063315	-0.007425915915519	
373	68.8148468262592	0.166259765625	37.199999906079	0.026194155216217	
374	68.9148468260067	0.165374755859375	37.2999999058266	-0.0322467833757401	
375	69.0148468257543	0.165496826171875	37.3999999055741	0.0171406418085098	
376	69.1148468255018	0.161865234375	37.4999999053216	-0.0709531009197235	
377	69.2148468252493	0.16363525390625	37.5999999050691	0.0752255395054817	
378	69.3148468249968	0.1654052734375	37.6999999048167	-0.000305174617096782	
379	69.4148468247444	0.165618896484375	37.7999999045642	-0.0108336992561817	
380	69.5148468244919	0.1649169921875	37.8999999043117	-0.00946041289716959	
381	69.6148468242394	0.1658935546875	37.9999999040592	0.0268045030534267	
382	69.7148468239869	0.165740966796875	38.0999999038067	-0.016530292108655	
383	69.8148468237345	0.165069580078125	38.1999999035543	-0.00727332849055529	
384	69.914846823482	0.16680908203125	38.2999999033018	0.0392149388790131	
385	70.0148468232295	0.16607666015625	38.3999999030493	-0.0359597429633141	
386	70.114846822977	0.166229248046875	38.4999999027968	0.0171406418085098	
387	70.2148468227246	0.166259765625	38.5999999025444	-0.00366209540516138	
388	70.3148468224721	0.165924072265625	38.6999999022919	-0.00600176770240068	
389	70.4148468222196	0.166107177734375	38.7999999020394	0.00737505313009024	
390	70.5148468219671	0.16546630859375	38.8999999017869	-0.0150044187903404	
391	70.6148468217147	0.165069580078125	38.9999999015345	0.000813798978924751	
392	70.7148468214622	0.166717529296875	39.099999901282	0.0327045470476151	
393	70.8148468212097	0.16455078125	39.1999999010295	-0.0602719858288765	
394	70.9148468209572	0.165557861328125	39.299999900777	0.0492348372936249	
395	71.0148468207047	0.164398193359375	39.3999999005246	-0.0402321852743626	
396	71.1148468204523	0.16497802734375	39.4999999002721	0.0275165773928165	
397	71.2148468201998	0.16375732421875	39.5999999000196	-0.0330097228288651	
398	71.3148468199473	0.1646728515625	39.6999998997671	0.0329588577151299	
399	71.4148468196948	0.16351318359375	39.7999998995147	-0.036010604351759	
400	71.5148468194424	0.164031982421875	39.8999998992622	0.0260924305766821	
401	71.6148468191899	0.164031982421875	39.9999998990097	-0.00991817470639944	
402	71.7148468189374	0.166015625	40.0999998987572	0.0380959659814835	
403	71.8148468186849	0.16558837890625	40.1999998985048	-0.0309752244502306	
404	71.9148468184325	0.165985107421875	40.2999998982523	0.0188699644058943	
405	72.01484681818	0.166473388671875	40.3999998979998	0.00289915897883475	
406	72.1148468179275	0.164794921875	40.4999998977473	-0.0351459421217442	
407	72.214846817675	0.16619873046875	40.5999998974949	0.0469460301101208	
408	72.3148468174226	0.16583251953125	40.6999998972424	-0.0286864135414362	
409	72.4148468171701	0.165863037109375	40.7999998969899	0.00951127521693707	
410	72.5148468169176	0.166015625	40.8999998967374	0.00122069846838713	
411	72.6148468166651	0.164276123046875	40.999999896485	-0.0335692092776299	
412	72.7148468164127	0.164703369140625	41.0999998962325	0.0286355521529913	
413	72.8148468161602	0.16455078125	41.19999989598	-0.0135802701115608	
414	72.9148468159077	0.165679931640625	41.2999998957275	0.0239053443074226	
415	73.0148468156552	0.1669921875	41.399999895475	0.0103759374469519	
416	73.1148468154028	0.165557861328125	41.4999998952226	-0.0378416515886784	
417	73.2148468151503	0.1668701171875	41.5999998949701	0.0451658442616463	
418	73.3148468148978	0.168365478515625	41.6999998947176	0.00732419081032276	
419	73.4148468146453	0.167449951171875	41.7999998944651	-0.0298562496900558	
420	73.5148468143929	0.16748046875	41.8999998942127	0.016225116327405	
421	73.6148468141404	0.167083740234375	41.9999998939602	-0.0106811113655567	
422	73.7148468138879	0.1673583984375	42.0999998937077	0.00976558774709702	
423	73.8148468136354	0.16668701171875	42.1999998934552	-0.0168354660272598	
424	73.914846813383	0.1671142578125	42.2999998932028	0.0165811534970999	
425	74.0148468131305	0.166412353515625	42.3999998929503	-0.0200906619429588	
426	74.114846812878	0.16802978515625	42.4999998926978	0.039265800267458	
427	74.2148468126255	0.1680908203125	42.5999998924453	-0.0200906619429588	
428	74.314846812373	0.165802001953125	42.6999998921929	-0.0372821651399136	
429	74.4148468121206	0.166839599609375	42.7999998919404	0.045928779989481	
430	74.5148468118681	0.1651611328125	42.8999998916879	-0.0505063980817795	
431	74.6148468116156	0.166748046875	42.9999998914354	0.052133996039629	
432	74.7148468113631	0.1646728515625	43.099999891183	-0.0621538981795311	
433	74.8148468111107	0.16424560546875	43.1999998909305	0.0216673985123634	
434	74.9148468108582	0.164337158203125	43.299999890678	-0.000254312180913985	
435	75.0148468106057	0.1632080078125	43.3999998904255	-0.023193271830678	
436	75.1148468103532	0.162322998046875	43.4999998901731	-0.00274657155387104	
437	75.2148468101008	0.16094970703125	43.5999998899206	-0.0186156518757343	
438	75.3148468098483	0.1622314453125	43.6999998896681	0.0365700908005238	
439	75.4148468095958	0.163330078125	43.7999998894156	0.000610349234193563	
440	75.5148468093433	0.161865234375	43.8999998891632	-0.0354002565145493	
441	75.6148468090909	0.16265869140625	43.9999998889107	0.0352985300123692	
442	75.7148468088384	0.163421630859375	44.0999998886582	-0.000152587308548391	
443	75.8148468085859	0.16241455078125	44.1999998884057	-0.0247191432863474	
444	75.9148468083334	0.16168212890625	44.2999998881533	0.000864661415107548	
445	76.014846808081	0.162841796875	44.3999998879008	0.026448467746377	
446	76.1148468078285	0.162261962890625	44.4999998876483	-0.0266010537743568	
447	76.214846807576	0.1619873046875	44.5999998873958	0.00559486821293831	
448	76.3148468073235	0.163818359375	44.6999998871433	0.0348407700657845	
449	76.4148468070711	0.16302490234375	44.7999998868909	-0.0368244051933289	
450	76.5148468068186	0.161865234375	44.8999998866384	-0.00590004259720445	
451	76.6148468065661	0.161773681640625	44.9999998863859	0.00920610129833221	
452	76.7148468063136	0.163177490234375	45.0999998861334	0.022938959300518	
453	76.8148468060612	0.161956787109375	45.199999885881	-0.0390623509883881	
454	76.9148468058087	0.162811279296875	45.2999998856285	0.0345864556729794	
455	77.0148468055562	0.1624755859375	45.399999885376	-0.0201923865824938	
456	77.1148468053037	0.163421630859375	45.4999998851235	0.0241087954491377	
457	77.2148468050513	0.162994384765625	45.5999998848711	-0.0199889373034239	
458	77.3148468047988	0.163818359375	45.6999998846186	0.0232441332191229	
459	77.4148468045463	0.16351318359375	45.7999998843661	-0.0166320167481899	
460	77.5148468042938	0.16229248046875	45.8999998841136	-0.0160725302994251	
461	77.6148468040413	0.163116455078125	45.9999998838612	0.0283303763717413	
462	77.7148468037889	0.161224365234375	46.0999998836087	-0.0483701750636101	
463	77.8148468035364	0.1622314453125	46.1999998833562	0.0432839319109917	
464	77.9148468032839	0.16107177734375	46.2999998831037	-0.0393166616559029	
465	78.0148468030314	0.16357421875	46.3999998828513	0.0627642497420311	
466	78.114846802779	0.16558837890625	46.4999998825988	0.00386554514989257	
467	78.2148468025265	0.164306640625	46.5999998823463	-0.0386554524302483	
468	78.314846802274	0.16424560546875	46.6999998820938	0.0205484237521887	
469	78.4148468020215	0.163299560546875	46.7999998818414	-0.0209044609218836	
470	78.5148468017691	0.162994384765625	46.8999998815889	0.00523883104324341	
471	78.6148468015166	0.162872314453125	46.9999998813364	-0.00183104770258069	
472	78.7148468012641	0.162506103515625	47.0999998810839	-0.00630694208666682	
473	78.8148468010116	0.16363525390625	47.1999998808315	0.0245665572583675	
474	78.9148468007592	0.1630859375	47.299999880579	-0.0244648326188326	
475	79.0148468005067	0.163482666015625	47.3999998803265	0.0174458157271147	
476	79.1148468002542	0.165069580078125	47.499999880074	0.022633783519268	
477	79.2148468000017	0.1650390625	47.5999998798216	-0.0177509896457195	
478	79.3148467997493	0.164398193359375	47.6999998795691	-0.00610349234193563	
479	79.4148467994968	0.165252685546875	47.7999998793166	0.023040683940053	
480	79.5148467992443	0.164031982421875	47.8999998790641	-0.0344847328960896	
481	79.6148467989918	0.165863037109375	47.9999998788116	0.0506589859724045	
482	79.7148467987394	0.164886474609375	48.0999998785592	-0.0433347970247269	
483	79.8148467984869	0.166046142578125	48.1999998783067	0.0387571752071381	
484	79.9148467982344	0.16650390625	48.2999998780542	-0.00839230231940746	
485	80.0148467979819	0.1649169921875	48.3999998778017	-0.0305683240294456	
486	80.1148467977295	0.16656494140625	48.4999998775493	0.0502520874142647	
487	80.214846797477	0.16424560546875	48.5999998772968	-0.0670366883277893	
488	80.3148467972245	0.16534423828125	48.6999998770443	0.0526934824883938	
489	80.414846796972	0.166412353515625	48.7999998767918	-0.000966386287473142	
490	80.5148467967196	0.16693115234375	48.8999998765394	0.000712074106559157	
491	80.6148467964671	0.167510986328125	48.9999998762869	0.00813798978924751	
492	80.7148467962146	0.16644287109375	49.0999998760344	-0.0246174186468124	
493	80.8148467959621	0.164947509765625	49.1999998757819	-0.013020783662796	
494	80.9148467957096	0.1658935546875	49.2999998755295	0.0312295351177454	
495	81.0148467954572	0.16656494140625	49.399999875277	-0.0037129579577595	
496	81.1148467952047	0.167633056640625	49.4999998750245	0.0149026941508055	
497	81.2148467949522	0.16888427734375	49.599999874772	0.0127156088128686	
498	81.3148467946997	0.16748046875	49.6999998745196	-0.0367735400795937	
499	81.4148467944473	0.169921875	49.7999998742671	0.0653073713183403	
500	81.5148467941948	0.168701171875	49.8999998740146	-0.055541779845953	
501	81.6148467939423	0.16937255859375	49.9999998737621	0.0346881821751595	
502	81.7148467936898	0.170135498046875	50.0999998735097	0.00208535999991	
503	81.8148467934374	0.1676025390625	50.1999998732572	-0.0531003847718239	
504	81.9148467931849	0.168426513671875	50.2999998730047	0.0472003407776356	
505	82.0148467929324	0.16845703125	50.3999998727522	-0.0174966789782047	
506	82.1148467926799	0.1690673828125	50.4999998724998	0.0135802701115608	
507	82.2148467924275	0.16827392578125	50.5999998722473	-0.0215656738728285	
508	82.314846792175	0.167694091796875	50.6999998719948	0.00066121167037636	
509	82.4148467919225	0.167999267578125	50.7999998717423	0.00971472542732954	
510	82.51484679167	0.168060302734375	50.8999998714899	-0.00437416974455118	
511	82.6148467914176	0.169219970703125	50.9999998712374	0.0215656738728285	
512	82.7148467911651	0.165618896484375	51.0999998709849	-0.0793453976511955	
513	82.8148467909126	0.1683349609375	51.1999998707324	0.0956722423434258	
514	82.9148467906601	0.16729736328125	51.29999987048	-0.0627133846282959	
515	83.0148467904077	0.167236328125	51.3999998702275	0.0200398005545139	
516	83.1148467901552	0.168487548828125	51.499999869975	0.0201923865824938	
517	83.2148467899027	0.16680908203125	51.5999998697225	-0.0455727428197861	
518	83.3148467896502	0.167755126953125	51.69999986947	0.0410968475043774	
519	83.4148467893978	0.16790771484375	51.7999998692176	-0.0138345826417208	
520	83.5148467891453	0.16705322265625	51.8999998689651	-0.0142923444509506	
521	83.6148467888928	0.16754150390625	51.9999998687126	0.0194294508546591	
522	83.7148467886403	0.16778564453125	52.0999998684601	-0.00406899489462376	
523	83.8148467883879	0.167266845703125	52.1999998682077	-0.0107319736853242	
524	83.9148467881354	0.167388916015625	52.2999998679552	0.00910437572747469	
525	84.0148467878829	0.16790771484375	52.3999998677027	0.0063578044064343	
526	84.1148467876304	0.16839599609375	52.4999998674502	0.00330605846829712	
527	84.214846787378	0.170166015625	52.5999998671978	0.0284829642623663	
528	84.3148467871255	0.16973876953125	52.6999998669453	-0.0268553663045168	
529	84.414846786873	0.169342041015625	52.7999998666928	0.00361123308539391	
530	84.5148467866205	0.16632080078125	52.8999998664403	-0.0521848611533642	
531	84.614846786368	0.165313720703125	52.9999998661879	0.0154621805995703	
532	84.7148467861156	0.1688232421875	53.0999998659354	0.0660194456577301	
533	84.8148467858631	0.168182373046875	53.1999998656829	-0.0560504049062729	
534	84.9148467856106	0.168487548828125	53.2999998654304	0.0247700065374374	
535	85.0148467853581	0.1685791015625	53.399999865178	-0.00401813257485628	
536	85.1148467851057	0.17059326171875	53.4999998649255	0.0368752665817738	
537	85.2148467848532	0.1702880859375	53.599999864673	-0.0287881381809711	
538	85.3148467846007	0.16900634765625	53.6999998644205	-0.0132242338731885	
539	85.4148467843482	0.16943359375	53.7999998641681	0.0217691231518984	
540	85.5148467840958	0.169586181640625	53.8999998639156	-0.00645952951163054	
541	85.6148467838433	0.16900634765625	53.9999998636631	-0.0109862862154841	
542	85.7148467835908	0.169921875	54.0999998634106	0.0240579321980476	
543	85.8148467833383	0.1688232421875	54.1999998631582	-0.03275540843606	
544	85.9148467830859	0.1697998046875	54.2999998629057	0.0337726585566998	
545	86.0148467828334	0.170379638671875	54.3999998626532	-0.00442503206431866	
546	86.1148467825809	0.17010498046875	54.4999998624007	-0.00854488927870989	
547	86.2148467823284	0.170623779296875	54.5999998621483	0.0146483816206455	
548	86.314846782076	0.17041015625	54.6999998618958	-0.0108845615759492	
549	86.4148467818235	0.16790771484375	54.7999998616433	-0.0416563339531422	
550	86.514846781571	0.167938232421875	54.8999998613908	0.0290424507111311	
551	86.6148467813185	0.167999267578125	54.9999998611383	-0.00757850287482142	
552	86.7148467810661	0.169158935546875	55.0999998608859	0.0206501483917236	
553	86.8148467808136	0.167572021484375	55.1999998606334	-0.0424192734062672	
554	86.9148467805611	0.169097900390625	55.2999998603809	0.0503538101911545	
555	87.0148467803086	0.17022705078125	55.3999998601284	-0.00239053461700678	
556	87.1148467800562	0.1683349609375	55.499999859876	-0.0427753105759621	
557	87.2148467798037	0.1690673828125	55.5999998596235	0.039265800267458	
558	87.3148467795512	0.16815185546875	55.699999859371	-0.0316364355385303	
559	87.4148467792987	0.1693115234375	55.7999998591185	0.0343830063939095	
560	87.5148467790463	0.166351318359375	55.8999998588661	-0.0708513706922531	
561	87.6148467787938	0.168060302734375	55.9999998586136	0.0697323977947235	
562	87.7148467785413	0.168609619140625	56.0999998583611	-0.0197346247732639	
563	87.8148467782888	0.170501708984375	56.1999998581086	0.0339761078357697	
564	87.9148467780363	0.169342041015625	56.2999998578562	-0.0415037497878075	
565	88.0148467777839	0.16845703125	56.3999998576037	0.00361123308539391	
566	88.1148467775314	0.167755126953125	56.4999998573512	-0.00640866719186306	
567	88.2148467772789	0.168121337890625	56.5999998570987	0.0119526721537113	
568	88.3148467770264	0.169769287109375	56.6999998568463	0.0236001703888178	
569	88.414846776774	0.169769287109375	56.7999998565938	-0.0180053021758795	
570	88.5148467765215	0.170440673828125	56.8999998563413	0.0178018528968096	
571	88.614846776269	0.168548583984375	56.9999998560888	-0.042520996183157	
572	88.7148467760165	0.16925048828125	57.0999998558364	0.0371804423630238	
573	88.8148467757641	0.167877197265625	57.1999998555839	-0.0396726988255978	
574	88.9148467755116	0.168212890625	57.2999998553314	0.0245156940072775	
575	89.0148467752591	0.168914794921875	57.3999998550789	0.00437416974455118	
576	89.1148467750066	0.16827392578125	57.4999998548265	-0.0188191011548042	
577	89.2148467747542	0.16851806640625	57.599999854574	0.0142923444509506	
578	89.3148467745017	0.170562744140625	57.6999998543215	0.0325010977685452	
579	89.4148467742492	0.16912841796875	57.799999854069	-0.049336563795805	
580	89.5148467739967	0.167327880859375	57.8999998538166	-0.00946041289716959	
581	89.6148467737443	0.167633056640625	57.9999998535641	0.0218199845403433	
582	89.7148467734918	0.168212890625	58.0999998533116	0.00106811115983874	
583	89.8148467732393	0.169097900390625	58.1999998530591	0.0104776620864868	
584	89.9148467729868	0.169525146484375	58.2999998528066	-0.000559486798010767	
585	90.0148467727344	0.1717529296875	58.3999998525542	0.0388080403208733	
586	90.1148467724819	0.17156982421875	58.4999998523017	-0.0279234778136015	
587	90.2148467722294	0.17010498046875	58.5999998520492	-0.0172932278364897	
588	90.3148467719769	0.172271728515625	58.6999998517967	0.0562029927968979	
589	90.4148467717245	0.171234130859375	58.7999998515443	-0.04918397590518	
590	90.514846771472	0.171356201171875	58.8999998512918	0.0215656738728285	
591	90.6148467712195	0.170196533203125	58.9999998510393	-0.026143291965127	
592	90.714846770967	0.169769287109375	59.0999998507868	0.00610349234193563	
593	90.8148467707146	0.167327880859375	59.1999998505344	-0.0436399690806866	
594	90.9148467704621	0.16961669921875	59.2999998502819	0.0690203234553337	
595	91.0148467702096	0.170013427734375	59.3999998500294	-0.0275674406439066	
596	91.1148467699571	0.170928955078125	59.4999998497769	0.019785488024354	
597	91.2148467697046	0.171142578125	59.5999998495245	-0.0054422807879746	
598	91.3148467694522	0.170379638671875	59.699999849272	-0.0134276831522584	
599	91.4148467691997	0.168701171875	59.7999998490195	-0.0211587734520435	
600	91.5148467689472	0.168670654296875	59.899999848767	0.0164794288575649	
