Index	Potential applied (V)	Time (s)	WE(1).Current (A)	WE(1).Potential (V)
1	0.00244140625	293.126214259927	-8.7158203125E-05	0.0025970458984375
2	0.0048828125	293.150614259866	-8.673095703125E-05	0.0050506591796875
3	0.00732421875	293.175014259804	-8.8134765625E-05	0.007476806640625
4	0.009765625	293.199414259743	-8.6273193359375E-05	0.0099151611328125
5	0.01220703125	293.223814259681	-8.80126953125E-05	0.0123809814453125
6	0.0146484375	293.248214259619	-8.5906982421875E-05	0.0148162841796875
7	0.01708984375	293.272614259558	-8.7554931640625E-05	0.0172454833984375
8	0.01953125	293.297014259496	-8.6669921875E-05	0.019683837890625
9	0.02197265625	293.321414259435	-8.6669921875E-05	0.0221221923828125
10	0.0244140625	293.345814259373	-8.7127685546875E-05	0.02457275390625
11	0.02685546875	293.370214259311	-8.587646484375E-05	0.027020263671875
12	0.029296875	293.39461425925	-8.7799072265625E-05	0.0294586181640625
13	0.03173828125	293.419014259188	-8.5540771484375E-05	0.031878662109375
14	0.0341796875	293.443414259127	-8.7158203125E-05	0.0343353271484375
15	0.03662109375	293.467814259065	-8.5662841796875E-05	0.036785888671875
16	0.0390625	293.492214259003	-8.65478515625E-05	0.0392303466796875
17	0.04150390625	293.516614258942	-8.6517333984375E-05	0.04166259765625
18	0.0439453125	293.54101425888	-8.5784912109375E-05	0.0441009521484375
19	0.04638671875	293.565414258819	-8.697509765625E-05	0.0465301513671875
20	0.048828125	293.589814258757	-8.50830078125E-05	0.04898681640625
21	0.05126953125	293.614214258695	-8.7310791015625E-05	0.051422119140625
22	0.0537109375	293.638614258634	-8.5174560546875E-05	0.053924560546875
23	0.05615234375	293.663014258572	-8.6395263671875E-05	0.056304931640625
24	0.05859375	293.687414258511	-8.5784912109375E-05	0.05877685546875
25	0.06103515625	293.711814258449	-8.563232421875E-05	0.061248779296875
26	0.0634765625	293.736214258387	-8.660888671875E-05	0.0635986328125
27	0.06591796875	293.760614258326	-8.4991455078125E-05	0.06610107421875
28	0.068359375	293.785014258264	-8.6639404296875E-05	0.06854248046875
29	0.07080078125	293.809414258203	-8.4503173828125E-05	0.070953369140625
30	0.0732421875	293.833814258141	-8.6395263671875E-05	0.0733642578125
31	0.07568359375	293.858214258079	-8.5174560546875E-05	0.075775146484375
32	0.078125	293.882614258018	-8.551025390625E-05	0.078216552734375
33	0.08056640625	293.907014257956	-8.5693359375E-05	0.080657958984375
34	0.0830078125	293.931414257895	-8.4716796875E-05	0.0831298828125
35	0.08544921875	293.955814257833	-8.642578125E-05	0.085540771484375
36	0.087890625	293.980214257771	-8.4197998046875E-05	0.0880126953125
37	0.09033203125	294.00461425771	-8.599853515625E-05	0.0904541015625
38	0.0927734375	294.029014257648	-8.416748046875E-05	0.092926025390625
39	0.09521484375	294.053414257586	-8.5479736328125E-05	0.09539794921875
40	0.09765625	294.077814257525	-8.5205078125E-05	0.097808837890625
41	0.10009765625	294.102214257463	-8.465576171875E-05	0.100250244140625
42	0.1025390625	294.126614257402	-8.5540771484375E-05	0.102691650390625
43	0.10498046875	294.15101425734	-8.3831787109375E-05	0.105133056640625
44	0.107421875	294.175414257278	-8.5968017578125E-05	0.1075439453125
45	0.10986328125	294.199814257217	-8.380126953125E-05	0.110015869140625
46	0.1123046875	294.224214257155	-8.5235595703125E-05	0.11248779296875
47	0.11474609375	294.248614257094	-8.41064453125E-05	0.114898681640625
48	0.1171875	294.273014257032	-8.441162109375E-05	0.117340087890625
49	0.11962890625	294.29741425697	-8.5052490234375E-05	0.1197509765625
50	0.1220703125	294.321814256909	-8.3740234375E-05	0.12225341796875
51	0.12451171875	294.346214256847	-8.5205078125E-05	0.124603271484375
52	0.126953125	294.370614256786	-8.30078125E-05	0.12713623046875
53	0.12939453125	294.395014256724	-8.5052490234375E-05	0.1295166015625
54	0.1318359375	294.419414256662	-8.3343505859375E-05	0.1319580078125
55	0.13427734375	294.443814256601	-8.4136962890625E-05	0.1343994140625
56	0.13671875	294.468214256539	-8.3953857421875E-05	0.1368408203125
57	0.13916015625	294.492614256478	-8.3343505859375E-05	0.1392822265625
58	0.1416015625	294.517014256416	-8.48388671875E-05	0.141754150390625
59	0.14404296875	294.541414256354	-8.2763671875E-05	0.1441650390625
60	0.146484375	294.565814256293	-8.4381103515625E-05	0.146575927734375
61	0.14892578125	294.590214256231	-8.221435546875E-05	0.1490478515625
62	0.1513671875	294.61461425617	-8.38623046875E-05	0.1514892578125
63	0.15380859375	294.639014256108	-8.31298828125E-05	0.15386962890625
64	0.15625	294.663414256046	-8.3099365234375E-05	0.15631103515625
65	0.15869140625	294.687814255985	-8.3465576171875E-05	0.158843994140625
66	0.1611328125	294.712214255923	-8.2122802734375E-05	0.161285400390625
67	0.16357421875	294.736614255862	-8.416748046875E-05	0.163665771484375
68	0.166015625	294.7610142558	-8.1787109375E-05	0.166168212890625
69	0.16845703125	294.785414255738	-8.3221435546875E-05	0.1685791015625
70	0.1708984375	294.809814255677	-8.172607421875E-05	0.17095947265625
71	0.17333984375	294.834214255615	-8.2489013671875E-05	0.173492431640625
72	0.17578125	294.858614255554	-8.26416015625E-05	0.1759033203125
73	0.17822265625	294.883014255492	-8.1634521484375E-05	0.178314208984375
74	0.1806640625	294.90741425543	-8.28857421875E-05	0.1807861328125
75	0.18310546875	294.931814255369	-8.0810546875E-05	0.1832275390625
76	0.185546875	294.956214255307	-8.28857421875E-05	0.18560791015625
77	0.18798828125	294.980614255246	-8.0902099609375E-05	0.1881103515625
78	0.1904296875	295.005014255184	-8.1939697265625E-05	0.1905517578125
79	0.19287109375	295.029414255122	-8.1268310546875E-05	0.192962646484375
80	0.1953125	295.053814255061	-8.1146240234375E-05	0.195404052734375
81	0.19775390625	295.078214254999	-8.2183837890625E-05	0.197845458984375
82	0.2001953125	295.102614254938	-8.0352783203125E-05	0.200347900390625
83	0.20263671875	295.127014254876	-8.197021484375E-05	0.20269775390625
84	0.205078125	295.151414254814	-7.977294921875E-05	0.20513916015625
85	0.20751953125	295.175814254753	-8.160400390625E-05	0.207611083984375
86	0.2099609375	295.200214254691	-8.050537109375E-05	0.210113525390625
87	0.21240234375	295.22461425463	-8.0810546875E-05	0.212432861328125
88	0.21484375	295.249014254568	-8.09326171875E-05	0.21490478515625
89	0.21728515625	295.273414254506	-7.989501953125E-05	0.217376708984375
90	0.2197265625	295.297814254445	-8.1451416015625E-05	0.219818115234375
91	0.22216796875	295.322214254383	-7.9193115234375E-05	0.222259521484375
92	0.224609375	295.346614254321	-8.1024169921875E-05	0.224700927734375
93	0.22705078125	295.37101425426	-7.91015625E-05	0.22711181640625
94	0.2294921875	295.395414254198	-8.0322265625E-05	0.229644775390625
95	0.23193359375	295.419814254137	-8.0078125E-05	0.23199462890625
96	0.234375	295.444214254075	-7.9376220703125E-05	0.23443603515625
97	0.23681640625	295.468614254013	-8.026123046875E-05	0.236907958984375
98	0.2392578125	295.493014253952	-7.855224609375E-05	0.23931884765625
99	0.24169921875	295.51741425389	-8.0474853515625E-05	0.24176025390625
100	0.244140625	295.541814253829	-7.818603515625E-05	0.24420166015625
101	0.24658203125	295.566214253767	-7.952880859375E-05	0.24664306640625
102	0.2490234375	295.590614253705	-7.8399658203125E-05	0.249114990234375
103	0.25146484375	295.615014253644	-7.87353515625E-05	0.251495361328125
104	0.25390625	295.639414253582	-7.9254150390625E-05	0.253997802734375
105	0.25634765625	295.663814253521	-7.7789306640625E-05	0.25640869140625
106	0.2587890625	295.688214253459	-7.9345703125E-05	0.25885009765625
107	0.26123046875	295.712614253397	-7.7117919921875E-05	0.26129150390625
108	0.263671875	295.737014253336	-7.9071044921875E-05	0.263763427734375
109	0.26611328125	295.761414253274	-7.7392578125E-05	0.26617431640625
110	0.2685546875	295.785814253213	-7.7972412109375E-05	0.2685546875
111	0.27099609375	295.810214253151	-7.757568359375E-05	0.27105712890625
112	0.2734375	295.834614253089	-7.6995849609375E-05	0.273590087890625
113	0.27587890625	295.859014253028	-7.830810546875E-05	0.275909423828125
114	0.2783203125	295.883414252966	-7.6171875E-05	0.278411865234375
115	0.28076171875	295.907814252905	-7.769775390625E-05	0.280792236328125
116	0.283203125	295.932214252843	-7.5439453125E-05	0.28326416015625
117	0.28564453125	295.956614252781	-7.6995849609375E-05	0.2857666015625
118	0.2880859375	295.98101425272	-7.6202392578125E-05	0.288116455078125
119	0.29052734375	296.005414252658	-7.6202392578125E-05	0.29058837890625
120	0.29296875	296.029814252597	-7.666015625E-05	0.29302978515625
121	0.29541015625	296.054214252535	-7.51953125E-05	0.29547119140625
122	0.2978515625	296.078614252473	-7.7056884765625E-05	0.29791259765625
123	0.30029296875	296.103014252412	-7.4615478515625E-05	0.300384521484375
124	0.302734375	296.12741425235	-7.5897216796875E-05	0.302825927734375
125	0.30517578125	296.151814252289	-7.403564453125E-05	0.30523681640625
126	0.3076171875	296.176214252227	-7.464599609375E-05	0.307647705078125
127	0.31005859375	296.200614252165	-7.464599609375E-05	0.31011962890625
128	0.3125	296.225014252104	-7.3638916015625E-05	0.31256103515625
129	0.31494140625	296.249414252042	-7.4676513671875E-05	0.314971923828125
130	0.3173828125	296.273814251981	-7.244873046875E-05	0.31744384765625
131	0.31982421875	296.298214251919	-7.4432373046875E-05	0.31988525390625
132	0.322265625	296.322614251857	-7.2235107421875E-05	0.322265625
133	0.32470703125	296.347014251796	-7.293701171875E-05	0.324798583984375
134	0.3271484375	296.371414251734	-7.2174072265625E-05	0.327178955078125
135	0.32958984375	296.395814251673	-7.2296142578125E-05	0.329620361328125
136	0.33203125	296.420214251611	-7.28759765625E-05	0.33209228515625
137	0.33447265625	296.444614251549	-7.1044921875E-05	0.334564208984375
138	0.3369140625	296.469014251488	-7.2540283203125E-05	0.336944580078125
139	0.33935546875	296.493414251426	-7.0068359375E-05	0.33941650390625
140	0.341796875	296.517814251364	-7.1807861328125E-05	0.341827392578125
141	0.34423828125	296.542214251303	-7.0465087890625E-05	0.34429931640625
142	0.3466796875	296.566614251241	-7.061767578125E-05	0.346710205078125
143	0.34912109375	296.59101425118	-7.06787109375E-05	0.34912109375
144	0.3515625	296.615414251118	-6.9549560546875E-05	0.351654052734375
145	0.35400390625	296.639814251056	-7.0892333984375E-05	0.35400390625
146	0.3564453125	296.664214250995	-6.854248046875E-05	0.356536865234375
147	0.35888671875	296.688614250933	-7.01904296875E-05	0.358917236328125
148	0.361328125	296.713014250872	-6.8023681640625E-05	0.36138916015625
149	0.36376953125	296.73741425081	-6.9183349609375E-05	0.36383056640625
150	0.3662109375	296.761814250748	-6.866455078125E-05	0.366241455078125
151	0.36865234375	296.786214250687	-6.7596435546875E-05	0.368743896484375
152	0.37109375	296.810614250625	-6.82373046875E-05	0.371185302734375
153	0.37353515625	296.835014250564	-6.634521484375E-05	0.37359619140625
154	0.3759765625	296.859414250502	-6.8206787109375E-05	0.376068115234375
155	0.37841796875	296.88381425044	-6.573486328125E-05	0.37847900390625
156	0.380859375	296.908214250379	-6.67724609375E-05	0.380950927734375
157	0.38330078125	296.932614250317	-6.536865234375E-05	0.38336181640625
158	0.3857421875	296.957014250256	-6.5521240234375E-05	0.38580322265625
159	0.38818359375	296.981414250194	-6.5673828125E-05	0.38818359375
160	0.390625	297.005814250132	-6.4422607421875E-05	0.390625
161	0.39306640625	297.030214250071	-6.5338134765625E-05	0.39312744140625
162	0.3955078125	297.054614250009	-6.2774658203125E-05	0.395538330078125
163	0.39794921875	297.079014249948	-6.4605712890625E-05	0.397979736328125
164	0.400390625	297.103414249886	-6.256103515625E-05	0.400390625
165	0.40283203125	297.127814249824	-6.3079833984375E-05	0.40283203125
166	0.4052734375	297.152214249763	-6.23779296875E-05	0.405303955078125
167	0.40771484375	297.176614249701	-6.146240234375E-05	0.40777587890625
168	0.41015625	297.20101424964	-6.26220703125E-05	0.410186767578125
169	0.41259765625	297.225414249578	-6.01806640625E-05	0.412567138671875
170	0.4150390625	297.249814249516	-6.16455078125E-05	0.4150390625
171	0.41748046875	297.274214249455	-5.92041015625E-05	0.41748046875
172	0.419921875	297.298614249393	-6.0302734375E-05	0.419921875
173	0.42236328125	297.323014249332	-5.8929443359375E-05	0.422332763671875
174	0.4248046875	297.34741424927	-5.8502197265625E-05	0.4248046875
175	0.42724609375	297.371814249208	-5.8441162109375E-05	0.427215576171875
176	0.4296875	297.396214249147	-5.682373046875E-05	0.429718017578125
177	0.43212890625	297.420614249085	-5.810546875E-05	0.432159423828125
178	0.4345703125	297.445014249024	-5.5328369140625E-05	0.4345703125
179	0.43701171875	297.469414248962	-5.645751953125E-05	0.437042236328125
180	0.439453125	297.4938142489	-5.4290771484375E-05	0.439453125
181	0.44189453125	297.518214248839	-5.4656982421875E-05	0.44189453125
182	0.4443359375	297.542614248777	-5.4168701171875E-05	0.444305419921875
183	0.44677734375	297.567014248716	-5.291748046875E-05	0.44677734375
184	0.44921875	297.591414248654	-5.3009033203125E-05	0.449249267578125
185	0.45166015625	297.615814248592	-5.0567626953125E-05	0.45159912109375
186	0.4541015625	297.640214248531	-5.2215576171875E-05	0.4541015625
187	0.45654296875	297.664614248469	-4.949951171875E-05	0.45654296875
188	0.458984375	297.689014248407	-5.0201416015625E-05	0.458892822265625
189	0.46142578125	297.713414248346	-4.876708984375E-05	0.461395263671875
190	0.4638671875	297.737814248284	-4.8187255859375E-05	0.463836669921875
191	0.46630859375	297.762214248223	-4.8260498046875E-05	0.466278076171875
192	0.46875	297.786614248161	-4.59442138671875E-05	0.46881103515625
193	0.47119140625	297.811014248099	-4.681396484375E-05	0.47125244140625
194	0.4736328125	297.835414248038	-4.3853759765625E-05	0.4737548828125
195	0.47607421875	297.859814247976	-4.5062255859375E-05	0.47613525390625
196	0.478515625	297.884214247915	-4.29351806640625E-05	0.47857666015625
197	0.48095703125	297.908614247853	-4.24224853515625E-05	0.48101806640625
198	0.4833984375	297.933014247791	-4.15374755859375E-05	0.483428955078125
199	0.48583984375	297.95741424773	-3.99688720703125E-05	0.48583984375
200	0.48828125	297.981814247668	-4.06951904296875E-05	0.488250732421875
201	0.49072265625	298.006214247607	-3.77899169921875E-05	0.49078369140625
202	0.4931640625	298.030614247545	-3.87359619140625E-05	0.493194580078125
203	0.49560546875	298.055014247483	-3.57696533203125E-05	0.495635986328125
204	0.498046875	298.079414247422	-3.6102294921875E-05	0.498046875
205	0.50048828125	298.10381424736	-3.47747802734375E-05	0.50048828125
206	0.5029296875	298.128214247299	-3.35296630859375E-05	0.502899169921875
207	0.50537109375	298.152614247237	-3.31390380859375E-05	0.505401611328125
208	0.5078125	298.177014247175	-3.09478759765625E-05	0.5078125
209	0.51025390625	298.201414247114	-3.15673828125E-05	0.51025390625
210	0.5126953125	298.225814247052	-2.8204345703125E-05	0.51263427734375
211	0.51513671875	298.250214246991	-2.86895751953125E-05	0.515106201171875
212	0.517578125	298.274614246929	-2.6495361328125E-05	0.51751708984375
213	0.52001953125	298.299014246867	-2.58270263671875E-05	0.52001953125
214	0.5224609375	298.323414246806	-2.5006103515625E-05	0.5224609375
215	0.52490234375	298.347814246744	-2.244873046875E-05	0.52490234375
216	0.52734375	298.372214246683	-2.24639892578125E-05	0.52734375
217	0.52978515625	298.396614246621	-1.93817138671875E-05	0.52978515625
218	0.5322265625	298.421014246559	-2.0513916015625E-05	0.532196044921875
219	0.53466796875	298.445414246498	-1.76055908203125E-05	0.53466796875
220	0.537109375	298.469814246436	-1.707763671875E-05	0.537017822265625
221	0.53955078125	298.494214246375	-1.50909423828125E-05	0.53955078125
222	0.5419921875	298.518614246313	-1.33636474609375E-05	0.541961669921875
223	0.54443359375	298.543014246251	-1.3006591796875E-05	0.54437255859375
224	0.546875	298.56741424619	-9.8724365234375E-06	0.546875
225	0.54931640625	298.591814246128	-1.04034423828125E-05	0.549285888671875
226	0.5517578125	298.616214246067	-6.82373046875E-06	0.551727294921875
227	0.55419921875	298.640614246005	-6.7626953125E-06	0.554168701171875
228	0.556640625	298.665014245943	-4.248046875E-06	0.55657958984375
229	0.55908203125	298.689414245882	-2.978515625E-06	0.558990478515625
230	0.5615234375	298.71381424582	-1.93145751953125E-06	0.561431884765625
231	0.56396484375	298.738214245759	2.618408203125E-07	0.56390380859375
232	0.56640625	298.762614245697	1.7333984375E-07	0.566314697265625
233	0.56884765625	298.787014245635	3.9886474609375E-06	0.568756103515625
234	0.5712890625	298.811414245574	4.2816162109375E-06	0.571075439453125
235	0.57373046875	298.835814245512	7.7239990234375E-06	0.573486328125
236	0.576171875	298.86021424545	8.2672119140625E-06	0.575958251953125
237	0.57861328125	298.884614245389	1.00860595703125E-05	0.578369140625
238	0.5810546875	298.909014245327	1.236572265625E-05	0.580718994140625
239	0.58349609375	298.933414245266	1.3311767578125E-05	0.58319091796875
240	0.5859375	298.957814245204	1.65557861328125E-05	0.58551025390625
241	0.58837890625	298.982214245142	1.62567138671875E-05	0.587921142578125
242	0.5908203125	299.006614245081	2.0269775390625E-05	0.59039306640625
243	0.59326171875	299.031014245019	2.1044921875E-05	0.5927734375
244	0.595703125	299.055414244958	2.38983154296875E-05	0.59515380859375
245	0.59814453125	299.079814244896	2.5457763671875E-05	0.59747314453125
246	0.6005859375	299.104214244834	2.67730712890625E-05	0.59991455078125
247	0.60302734375	299.128614244773	3.0230712890625E-05	0.602203369140625
248	0.60546875	299.153014244711	3.0810546875E-05	0.60528564453125
249	0.60791015625	299.17741424465	3.51898193359375E-05	0.607757568359375
250	0.6103515625	299.201814244588	3.53271484375E-05	0.61016845703125
251	0.61279296875	299.226214244526	3.90777587890625E-05	0.612579345703125
252	0.615234375	299.250614244465	4.06707763671875E-05	0.61505126953125
253	0.61767578125	299.275014244403	4.30633544921875E-05	0.617523193359375
254	0.6201171875	299.299414244342	4.5941162109375E-05	0.61993408203125
255	0.62255859375	299.32381424428	4.67437744140625E-05	0.62237548828125
256	0.625	299.348214244218	5.1239013671875E-05	0.6248779296875
257	0.62744140625	299.372614244157	5.18798828125E-05	0.62725830078125
258	0.6298828125	299.397014244095	5.6427001953125E-05	0.629730224609375
259	0.63232421875	299.421414244034	5.7403564453125E-05	0.632171630859375
260	0.634765625	299.445814243972	6.072998046875E-05	0.634552001953125
261	0.63720703125	299.47021424391	6.341552734375E-05	0.636932373046875
262	0.6396484375	299.494614243849	6.549072265625E-05	0.639434814453125
263	0.64208984375	299.519014243787	6.9488525390625E-05	0.641845703125
264	0.64453125	299.543414243726	7.0281982421875E-05	0.64434814453125
265	0.64697265625	299.567814243664	7.51953125E-05	0.646697998046875
266	0.6494140625	299.592214243602	7.67822265625E-05	0.649169921875
267	0.65185546875	299.616614243541	8.099365234375E-05	0.651641845703125
268	0.654296875	299.641014243479	8.3099365234375E-05	0.654083251953125
269	0.65673828125	299.665414243418	8.551025390625E-05	0.656402587890625
270	0.6591796875	299.689814243356	8.984375E-05	0.658935546875
271	0.66162109375	299.714214243294	9.130859375E-05	0.661346435546875
272	0.6640625	299.738614243233	9.6435546875E-05	0.663726806640625
273	0.66650390625	299.763014243171	9.759521484375E-05	0.66619873046875
274	0.6689453125	299.78741424311	0.000102783203125	0.668670654296875
275	0.67138671875	299.811814243048	0.00010479736328125	0.67108154296875
276	0.673828125	299.836214242986	0.000108795166015625	0.673492431640625
277	0.67626953125	299.860614242925	0.0001119384765625	0.675933837890625
278	0.6787109375	299.885014242863	0.00011456298828125	0.678375244140625
279	0.68115234375	299.909414242802	0.00011962890625	0.680755615234375
280	0.68359375	299.93381424274	0.00012158203125	0.6832275390625
281	0.68603515625	299.958214242678	0.000126861572265625	0.68560791015625
282	0.6884765625	299.982614242617	0.000128692626953125	0.688079833984375
283	0.69091796875	300.007014242555	0.000133453369140625	0.690521240234375
284	0.693359375	300.031414242493	0.000136871337890625	0.69287109375
285	0.69580078125	300.055814242432	0.00014031982421875	0.695343017578125
286	0.6982421875	300.08021424237	0.00014495849609375	0.69775390625
287	0.70068359375	300.104614242309	0.000147430419921875	0.700225830078125
288	0.703125	300.129014242247	0.0001533203125	0.702606201171875
289	0.70556640625	300.153414242185	0.00015576171875	0.705047607421875
290	0.7080078125	300.177814242124	0.000161712646484375	0.707489013671875
291	0.71044921875	300.202214242062	0.000164398193359375	0.709930419921875
292	0.712890625	300.226614242001	0.000168853759765625	0.712371826171875
293	0.71533203125	300.251014241939	0.000173370361328125	0.714752197265625
294	0.7177734375	300.275414241877	0.00017681884765625	0.71722412109375
295	0.72021484375	300.299814241816	0.00018267822265625	0.7196044921875
296	0.72265625	300.324214241754	0.000185302734375	0.722076416015625
297	0.72509765625	300.348614241693	0.000192108154296875	0.724517822265625
298	0.7275390625	300.373014241631	0.000195159912109375	0.72698974609375
299	0.72998046875	300.397414241569	0.00020086669921875	0.729400634765625
300	0.732421875	300.421814241508	0.000205169677734375	0.7318115234375
301	0.73486328125	300.446214241446	0.000209564208984375	0.734161376953125
302	0.7373046875	300.470614241385	0.000215728759765625	0.73663330078125
303	0.73974609375	300.495014241323	0.00021929931640625	0.739044189453125
304	0.7421875	300.519414241261	0.000226226806640625	0.741455078125
305	0.74462890625	300.5438142412	0.000229156494140625	0.743927001953125
306	0.7470703125	300.568214241138	0.00023602294921875	0.74627685546875
307	0.74951171875	300.592614241077	0.000240081787109375	0.748687744140625
308	0.751953125	300.617014241015	0.000245941162109375	0.7513427734375
309	0.75439453125	300.641414240953	0.000251983642578125	0.75347900390625
310	0.7568359375	300.665814240892	0.00025701904296875	0.7562255859375
311	0.75927734375	300.69021424083	0.00026348876953125	0.75836181640625
312	0.76171875	300.714614240769	0.000267486572265625	0.76141357421875
313	0.76416015625	300.739014240707	0.0002752685546875	0.7635498046875
314	0.7666015625	300.763414240645	0.000279266357421875	0.7659912109375
315	0.76904296875	300.787814240584	0.00028668212890625	0.7684326171875
316	0.771484375	300.812214240522	0.000292633056640625	0.77117919921875
317	0.77392578125	300.836614240461	0.000298492431640625	0.77301025390625
318	0.7763671875	300.861014240399	0.000305755615234375	0.77545166015625
319	0.77880859375	300.885414240337	0.000310638427734375	0.7781982421875
320	0.78125	300.909814240276	0.000319091796875	0.780029296875
321	0.78369140625	300.934214240214	0.000323944091796875	0.78277587890625
322	0.7861328125	300.958614240153	0.000332061767578125	0.78521728515625
323	0.78857421875	300.983014240091	0.000337799072265625	0.7879638671875
324	0.791015625	301.007414240029	0.000344696044921875	0.79010009765625
325	0.79345703125	301.031814239968	0.000352142333984375	0.792236328125
326	0.7958984375	301.056214239906	0.000358306884765625	0.794677734375
327	0.79833984375	301.080614239845	0.00036651611328125	0.797119140625
328	0.80078125	301.105014239783	0.0003721923828125	0.79986572265625
329	0.80322265625	301.129414239721	0.000381134033203125	0.80230712890625
330	0.8056640625	301.15381423966	0.00038751220703125	0.80474853515625
331	0.80810546875	301.178214239598	0.00039605712890625	0.80718994140625
332	0.810546875	301.202614239537	0.000404052734375	0.80963134765625
333	0.81298828125	301.227014239475	0.00041162109375	0.81207275390625
334	0.8154296875	301.251414239413	0.000420379638671875	0.81451416015625
335	0.81787109375	301.275814239352	0.00042767333984375	0.81695556640625
336	0.8203125	301.30021423929	0.000436920166015625	0.81939697265625
337	0.82275390625	301.324614239228	0.00044378662109375	0.82244873046875
338	0.8251953125	301.349014239167	0.000453887939453125	0.8245849609375
339	0.82763671875	301.373414239105	0.000461883544921875	0.82672119140625
340	0.830078125	301.397814239044	0.000470550537109375	0.82916259765625
341	0.83251953125	301.422214238982	0.00047967529296875	0.8319091796875
342	0.8349609375	301.44661423892	0.000487701416015625	0.83404541015625
343	0.83740234375	301.471014238859	0.000498504638671875	0.83648681640625
344	0.83984375	301.495414238797	0.00050689697265625	0.83892822265625
345	0.84228515625	301.519814238736	0.00051727294921875	0.8416748046875
346	0.8447265625	301.544214238674	0.00052581787109375	0.8441162109375
347	0.84716796875	301.568614238612	0.00053619384765625	0.84686279296875
348	0.849609375	301.593014238551	0.00054595947265625	0.84869384765625
349	0.85205078125	301.617414238489	0.00055572509765625	0.850830078125
350	0.8544921875	301.641814238428	0.00056671142578125	0.8538818359375
351	0.85693359375	301.666214238366	0.00057586669921875	0.8563232421875
352	0.859375	301.690614238304	0.0005877685546875	0.85845947265625
353	0.86181640625	301.715014238243	0.00059814453125	0.86090087890625
354	0.8642578125	301.739414238181	0.0006097412109375	0.86334228515625
355	0.86669921875	301.76381423812	0.0006201171875	0.865478515625
356	0.869140625	301.788214238058	0.00063140869140625	0.86883544921875
357	0.87158203125	301.812614237996	0.00064300537109375	0.870361328125
358	0.8740234375	301.837014237935	0.0006536865234375	0.87310791015625
359	0.87646484375	301.861414237873	0.00066650390625	0.87554931640625
360	0.87890625	301.885814237812	0.0006768798828125	0.87799072265625
361	0.88134765625	301.91021423775	0.0006903076171875	0.88043212890625
362	0.8837890625	301.934614237688	0.00070220947265625	0.882568359375
363	0.88623046875	301.959014237627	0.0007147216796875	0.88531494140625
364	0.888671875	301.983414237565	0.0007275390625	0.8880615234375
365	0.89111328125	302.007814237504	0.00074005126953125	0.89019775390625
366	0.8935546875	302.032214237442	0.000753173828125	0.892333984375
367	0.89599609375	302.05661423738	0.000765380859375	0.8953857421875
368	0.8984375	302.081014237319	0.00078033447265625	0.8978271484375
369	0.90087890625	302.105414237257	0.000792236328125	0.89996337890625
370	0.9033203125	302.129814237196	0.000806884765625	0.90240478515625
371	0.90576171875	302.154214237134	0.00082122802734375	0.90484619140625
372	0.908203125	302.178614237072	0.0008355712890625	0.90728759765625
373	0.91064453125	302.203014237011	0.00085052490234375	0.90972900390625
374	0.9130859375	302.227414236949	0.0008642578125	0.91217041015625
375	0.91552734375	302.251814236888	0.0008807373046875	0.9149169921875
376	0.91796875	302.276214236826	0.0008953857421875	0.91705322265625
377	0.92041015625	302.300614236764	0.00091156005859375	0.91949462890625
378	0.9228515625	302.325014236703	0.00092681884765625	0.92254638671875
379	0.92529296875	302.349414236641	0.00094329833984375	0.92437744140625
380	0.927734375	302.37381423658	0.0009600830078125	0.92681884765625
381	0.93017578125	302.398214236518	0.00097686767578125	0.92926025390625
382	0.9326171875	302.422614236456	0.0009942626953125	0.93170166015625
383	0.93505859375	302.447014236395	0.00101043701171875	0.9344482421875
384	0.9375	302.471414236333	0.001029052734375	0.936279296875
385	0.93994140625	302.495814236271	0.0010455322265625	0.93963623046875
386	0.9423828125	302.52021423621	0.001064453125	0.94207763671875
387	0.94482421875	302.544614236148	0.001082763671875	0.94390869140625
388	0.947265625	302.569014236087	0.00110107421875	0.9466552734375
389	0.94970703125	302.593414236025	0.00112030029296875	0.9490966796875
390	0.9521484375	302.617814235963	0.0011395263671875	0.9515380859375
391	0.95458984375	302.642214235902	0.0011602783203125	0.95367431640625
392	0.95703125	302.66661423584	0.0011798095703125	0.9564208984375
393	0.95947265625	302.691014235779	0.00120086669921875	0.95916748046875
394	0.9619140625	302.715414235717	0.00122161865234375	0.960693359375
395	0.96435546875	302.739814235655	0.0012432861328125	0.963134765625
396	0.966796875	302.764214235594	0.0012652587890625	0.965576171875
397	0.96923828125	302.788614235532	0.00128662109375	0.9686279296875
398	0.9716796875	302.813014235471	0.001309814453125	0.970458984375
399	0.97412109375	302.837414235409	0.00133209228515625	0.97320556640625
400	0.9765625	302.861814235347	0.001356201171875	0.97564697265625
401	0.97900390625	302.886214235286	0.00137908935546875	0.977783203125
402	0.9814453125	302.910614235224	0.00140380859375	0.980224609375
403	0.98388671875	302.935014235163	0.00142822265625	0.9832763671875
404	0.986328125	302.959414235101	0.0014532470703125	0.98541259765625
405	0.98876953125	302.983814235039	0.0014788818359375	0.98785400390625
406	0.9912109375	303.008214234978	0.00150421142578125	0.9906005859375
407	0.99365234375	303.032614234916	0.00153167724609375	0.9930419921875
408	0.99609375	303.057014234855	0.0015582275390625	0.9954833984375
409	0.99853515625	303.081414234793	0.0015863037109375	0.99761962890625
410	1.0009765625	303.105814234731	0.00161376953125	1.0003662109375
411	1.00341796875	303.13021423467	0.00164215087890625	1.00250244140625
412	1.005859375	303.154614234608	0.00167083740234375	1.00494384765625
413	1.00830078125	303.179014234547	0.0016998291015625	1.00738525390625
414	1.0107421875	303.203414234485	0.0017303466796875	1.0101318359375
415	1.01318359375	303.227814234423	0.0017596435546875	1.0125732421875
416	1.015625	303.252214234362	0.00179168701171875	1.01470947265625
417	1.01806640625	303.2766142343	0.001822509765625	1.0174560546875
418	1.0205078125	303.301014234239	0.00185516357421875	1.019287109375
419	1.02294921875	303.325414234177	0.00188720703125	1.02203369140625
420	1.025390625	303.349814234115	0.001920166015625	1.0247802734375
421	1.02783203125	303.374214234054	0.001954345703125	1.026611328125
422	1.0302734375	303.398614233992	0.001988525390625	1.0296630859375
423	1.03271484375	303.423014233931	0.00202392578125	1.03179931640625
424	1.03515625	303.447414233869	0.0020587158203125	1.033935546875
425	1.03759765625	303.471814233807	0.00209503173828125	1.036376953125
426	1.0400390625	303.496214233746	0.00213134765625	1.0394287109375
427	1.04248046875	303.520614233684	0.00216888427734375	1.04156494140625
428	1.044921875	303.545014233623	0.00220703125	1.043701171875
429	1.04736328125	303.569414233561	0.00224456787109375	1.04644775390625
430	1.0498046875	303.593814233499	0.0022845458984375	1.0491943359375
431	1.05224609375	303.618214233438	0.00232391357421875	1.051025390625
432	1.0546875	303.642614233376	0.0023638916015625	1.0540771484375
433	1.05712890625	303.667014233314	0.0024041748046875	1.05621337890625
434	1.0595703125	303.691414233253	0.0024456787109375	1.058349609375
435	1.06201171875	303.715814233191	0.00248748779296875	1.06048583984375
436	1.064453125	303.74021423313	0.0025299072265625	1.06353759765625
437	1.06689453125	303.764614233068	0.00257354736328125	1.06597900390625
438	1.0693359375	303.789014233006	0.00261627197265625	1.06903076171875
439	1.07177734375	303.813414232945	0.0026611328125	1.0711669921875
440	1.07421875	303.837814232883	0.0027056884765625	1.072998046875
441	1.07666015625	303.862214232822	0.00275177001953125	1.075439453125
442	1.0791015625	303.88661423276	0.0027972412109375	1.07757568359375
443	1.08154296875	303.911014232698	0.0028436279296875	1.080322265625
444	1.083984375	303.935414232637	0.0028912353515625	1.082763671875
445	1.08642578125	303.959814232575	0.00293853759765625	1.08551025390625
446	1.0888671875	303.984214232514	0.00298736572265625	1.08795166015625
447	1.09130859375	304.008614232452	0.0030352783203125	1.09039306640625
448	1.09375	304.03301423239	0.00308502197265625	1.0931396484375
449	1.09619140625	304.057414232329	0.00313446044921875	1.09527587890625
450	1.0986328125	304.081814232267	0.00318450927734375	1.09771728515625
451	1.10107421875	304.106214232206	0.00323516845703125	1.10015869140625
452	1.103515625	304.130614232144	0.00328582763671875	1.102294921875
453	1.10595703125	304.155014232082	0.00333740234375	1.104736328125
454	1.1083984375	304.179414232021	0.00338958740234375	1.10748291015625
455	1.11083984375	304.203814231959	0.00344207763671875	1.10992431640625
456	1.11328125	304.228214231898	0.00349395751953125	1.112060546875
457	1.11572265625	304.252614231836	0.0035467529296875	1.1151123046875
458	1.1181640625	304.277014231774	0.0035992431640625	1.1175537109375
459	1.12060546875	304.301414231713	0.00365234375	1.11968994140625
460	1.123046875	304.325814231651	0.003704833984375	1.1224365234375
461	1.12548828125	304.35021423159	0.0037567138671875	1.12396240234375
462	1.1279296875	304.374614231528	0.00380950927734375	1.126708984375
463	1.13037109375	304.399014231466	0.003861083984375	1.12884521484375
464	1.1328125	304.423414231405	0.0039129638671875	1.13128662109375
465	1.13525390625	304.447814231343	0.00396331787109375	1.13433837890625
466	1.1376953125	304.472214231282	0.00401336669921875	1.136474609375
467	1.14013671875	304.49661423122	0.0040625	1.138916015625
468	1.142578125	304.521014231158	0.00411041259765625	1.141357421875
469	1.14501953125	304.545414231097	0.00415740966796875	1.14410400390625
470	1.1474609375	304.569814231035	0.00420257568359375	1.146240234375
471	1.14990234375	304.594214230974	0.0042474365234375	1.148681640625
472	1.15234375	304.618614230912	0.00429046630859375	1.151123046875
473	1.15478515625	304.64301423085	0.00433197021484375	1.15325927734375
474	1.1572265625	304.667414230789	0.00437225341796875	1.15631103515625
475	1.15966796875	304.691814230727	0.0044110107421875	1.15875244140625
476	1.162109375	304.716214230666	0.0044488525390625	1.16119384765625
477	1.16455078125	304.740614230604	0.00448486328125	1.16363525390625
478	1.1669921875	304.765014230542	0.004520263671875	1.16607666015625
479	1.16943359375	304.789414230481	0.0045538330078125	1.16851806640625
480	1.171875	304.813814230419	0.0045867919921875	1.17034912109375
481	1.17431640625	304.838214230357	0.00461822509765625	1.17279052734375
482	1.1767578125	304.862614230296	0.0046490478515625	1.175537109375
483	1.17919921875	304.887014230234	0.00467864990234375	1.177978515625
484	1.181640625	304.911414230173	0.00470733642578125	1.180419921875
485	1.18408203125	304.935814230111	0.004735107421875	1.182861328125
486	1.1865234375	304.960214230049	0.004761962890625	1.1859130859375
487	1.18896484375	304.984614229988	0.0047882080078125	1.18804931640625
488	1.19140625	305.009014229926	0.00481353759765625	1.1907958984375
489	1.19384765625	305.033414229865	0.00483795166015625	1.1932373046875
490	1.1962890625	305.057814229803	0.004862060546875	1.19537353515625
491	1.19873046875	305.082214229741	0.00488525390625	1.19720458984375
492	1.201171875	305.10661422968	0.0049078369140625	1.199951171875
493	1.19873046875	305.131014229618	0.0048846435546875	1.19781494140625
494	1.1962890625	305.155414229557	0.00486083984375	1.195068359375
495	1.19384765625	305.179814229495	0.00483642578125	1.19232177734375
496	1.19140625	305.204214229433	0.00481109619140625	1.190185546875
497	1.18896484375	305.228614229372	0.00478515625	1.187744140625
498	1.1865234375	305.25301422931	0.00475830078125	1.1859130859375
499	1.18408203125	305.277414229249	0.00473052978515625	1.182861328125
500	1.181640625	305.301814229187	0.0047021484375	1.180419921875
501	1.17919921875	305.326214229125	0.0046728515625	1.1773681640625
502	1.1767578125	305.350614229064	0.00464202880859375	1.175537109375
503	1.17431640625	305.375014229002	0.004610595703125	1.17340087890625
504	1.171875	305.399414228941	0.00457794189453125	1.1712646484375
505	1.16943359375	305.423814228879	0.00454437255859375	1.16851806640625
506	1.1669921875	305.448214228817	0.00450958251953125	1.16546630859375
507	1.16455078125	305.472614228756	0.00447296142578125	1.16363525390625
508	1.162109375	305.497014228694	0.00443572998046875	1.16119384765625
509	1.15966796875	305.521414228633	0.00439666748046875	1.15875244140625
510	1.1572265625	305.545814228571	0.00435699462890625	1.15631103515625
511	1.15478515625	305.570214228509	0.00431488037109375	1.153564453125
512	1.15234375	305.594614228448	0.0042718505859375	1.1517333984375
513	1.14990234375	305.619014228386	0.00422698974609375	1.14898681640625
514	1.1474609375	305.643414228325	0.0041815185546875	1.14654541015625
515	1.14501953125	305.667814228263	0.00413421630859375	1.14410400390625
516	1.142578125	305.692214228201	0.00408538818359375	1.141357421875
517	1.14013671875	305.71661422814	0.0040362548828125	1.138916015625
518	1.1376953125	305.741014228078	0.00398529052734375	1.136474609375
519	1.13525390625	305.765414228017	0.003934326171875	1.13372802734375
520	1.1328125	305.789814227955	0.0038812255859375	1.13189697265625
521	1.13037109375	305.814214227893	0.003828125	1.129150390625
522	1.1279296875	305.838614227832	0.00377471923828125	1.1260986328125
523	1.12548828125	305.86301422777	0.00372100830078125	1.124267578125
524	1.123046875	305.887414227709	0.0036669921875	1.12213134765625
525	1.12060546875	305.911814227647	0.003612060546875	1.119384765625
526	1.1181640625	305.936214227585	0.003558349609375	1.11663818359375
527	1.11572265625	305.960614227524	0.00350341796875	1.11480712890625
528	1.11328125	305.985014227462	0.00344970703125	1.112060546875
529	1.11083984375	306.0094142274	0.00339569091796875	1.10992431640625
530	1.1083984375	306.033814227339	0.0033416748046875	1.1077880859375
531	1.10595703125	306.058214227277	0.00328857421875	1.10443115234375
532	1.103515625	306.082614227216	0.0032354736328125	1.102294921875
533	1.10107421875	306.107014227154	0.00318359375	1.099853515625
534	1.0986328125	306.131414227092	0.0031304931640625	1.097412109375
535	1.09619140625	306.155814227031	0.0030792236328125	1.09527587890625
536	1.09375	306.180214226969	0.00302825927734375	1.092529296875
537	1.09130859375	306.204614226908	0.00297760009765625	1.0906982421875
538	1.0888671875	306.229014226846	0.00292755126953125	1.08795166015625
539	1.08642578125	306.253414226784	0.002877197265625	1.08551025390625
540	1.083984375	306.277814226723	0.00282867431640625	1.0833740234375
541	1.08154296875	306.302214226661	0.002779541015625	1.0809326171875
542	1.0791015625	306.3266142266	0.0027325439453125	1.07818603515625
543	1.07666015625	306.351014226538	0.002684326171875	1.07574462890625
544	1.07421875	306.375414226476	0.00263763427734375	1.0736083984375
545	1.07177734375	306.399814226415	0.00259124755859375	1.07086181640625
546	1.0693359375	306.424214226353	0.00254547119140625	1.06903076171875
547	1.06689453125	306.448614226292	0.00250091552734375	1.06597900390625
548	1.064453125	306.47301422623	0.00245513916015625	1.06353759765625
549	1.06201171875	306.497414226168	0.002412109375	1.0614013671875
550	1.0595703125	306.521814226107	0.0023681640625	1.05865478515625
551	1.05712890625	306.546214226045	0.0023260498046875	1.05621337890625
552	1.0546875	306.570614225984	0.0022833251953125	1.0540771484375
553	1.05224609375	306.595014225922	0.00224151611328125	1.051025390625
554	1.0498046875	306.61941422586	0.002200927734375	1.048583984375
555	1.04736328125	306.643814225799	0.00216033935546875	1.04644775390625
556	1.044921875	306.668214225737	0.00212127685546875	1.043701171875
557	1.04248046875	306.692614225676	0.00208099365234375	1.04156494140625
558	1.0400390625	306.717014225614	0.0020428466796875	1.03912353515625
559	1.03759765625	306.741414225552	0.00200469970703125	1.0369873046875
560	1.03515625	306.765814225491	0.0019677734375	1.03363037109375
561	1.03271484375	306.790214225429	0.00193023681640625	1.0321044921875
562	1.0302734375	306.814614225368	0.00189422607421875	1.029052734375
563	1.02783203125	306.839014225306	0.001859130859375	1.02630615234375
564	1.025390625	306.863414225244	0.0018231201171875	1.02447509765625
565	1.02294921875	306.887814225183	0.00178985595703125	1.02203369140625
566	1.0205078125	306.912214225121	0.0017547607421875	1.019287109375
567	1.01806640625	306.93661422506	0.001722412109375	1.01715087890625
568	1.015625	306.961014224998	0.00168914794921875	1.0150146484375
569	1.01318359375	306.985414224936	0.00165740966796875	1.011962890625
570	1.0107421875	307.009814224875	0.00162628173828125	1.0101318359375
571	1.00830078125	307.034214224813	0.00159454345703125	1.00738525390625
572	1.005859375	307.058614224752	0.00156494140625	1.0052490234375
573	1.00341796875	307.08301422469	0.00153411865234375	1.0028076171875
574	1.0009765625	307.107414224628	0.00150604248046875	1.00006103515625
575	0.99853515625	307.131814224567	0.00147613525390625	0.99822998046875
576	0.99609375	307.156214224505	0.0014483642578125	0.9954833984375
577	0.99365234375	307.180614224444	0.0014202880859375	0.99273681640625
578	0.9912109375	307.205014224382	0.00139312744140625	0.9906005859375
579	0.98876953125	307.22941422432	0.0013671875	0.9881591796875
580	0.986328125	307.253814224259	0.00134002685546875	0.985107421875
581	0.98388671875	307.278214224197	0.00131591796875	0.9832763671875
582	0.9814453125	307.302614224135	0.00128997802734375	0.98052978515625
583	0.97900390625	307.327014224074	0.00126617431640625	0.9783935546875
584	0.9765625	307.351414224012	0.001241455078125	0.9759521484375
585	0.97412109375	307.375814223951	0.00121795654296875	0.97320556640625
586	0.9716796875	307.400214223889	0.001195068359375	0.970458984375
587	0.96923828125	307.424614223827	0.0011712646484375	0.96832275390625
588	0.966796875	307.449014223766	0.0011505126953125	0.96588134765625
589	0.96435546875	307.473414223704	0.0011273193359375	0.9637451171875
590	0.9619140625	307.497814223643	0.00110626220703125	0.9613037109375
591	0.95947265625	307.522214223581	0.00108489990234375	0.9588623046875
592	0.95703125	307.546614223519	0.0010650634765625	0.9564208984375
593	0.95458984375	307.571014223458	0.001044921875	0.95367431640625
594	0.9521484375	307.595414223396	0.001025390625	0.950927734375
595	0.94970703125	307.619814223335	0.001007080078125	0.948486328125
596	0.947265625	307.644214223273	0.000987548828125	0.94635009765625
597	0.94482421875	307.668614223211	0.0009710693359375	0.94451904296875
598	0.9423828125	307.69301422315	0.0009515380859375	0.94146728515625
599	0.93994140625	307.717414223088	0.00093414306640625	0.9393310546875
600	0.9375	307.741814223027	0.0009161376953125	0.9368896484375
601	0.93505859375	307.766214222965	0.0008984375	0.93414306640625
602	0.9326171875	307.790614222903	0.0008819580078125	0.9320068359375
603	0.93017578125	307.815014222842	0.0008648681640625	0.92926025390625
604	0.927734375	307.83941422278	0.00085052490234375	0.92681884765625
605	0.92529296875	307.863814222719	0.000833740234375	0.9246826171875
606	0.9228515625	307.888214222657	0.0008197021484375	0.921630859375
607	0.92041015625	307.912614222595	0.0008038330078125	0.919189453125
608	0.91796875	307.937014222534	0.0007891845703125	0.9173583984375
609	0.91552734375	307.961414222472	0.000775146484375	0.914306640625
610	0.9130859375	307.985814222411	0.000760498046875	0.911865234375
611	0.91064453125	308.010214222349	0.00074798583984375	0.9100341796875
612	0.908203125	308.034614222287	0.0007330322265625	0.90789794921875
613	0.90576171875	308.059014222226	0.00072113037109375	0.904541015625
614	0.9033203125	308.083414222164	0.0007073974609375	0.90301513671875
615	0.90087890625	308.107814222103	0.00069549560546875	0.90057373046875
616	0.8984375	308.132214222041	0.000682373046875	0.897216796875
617	0.89599609375	308.156614221979	0.00066986083984375	0.8953857421875
618	0.8935546875	308.181014221918	0.0006585693359375	0.89263916015625
619	0.89111328125	308.205414221856	0.00064544677734375	0.89019775390625
620	0.888671875	308.229814221795	0.000635986328125	0.8880615234375
621	0.88623046875	308.254214221733	0.00062286376953125	0.8856201171875
622	0.8837890625	308.278614221671	0.00061309814453125	0.88287353515625
623	0.88134765625	308.30301422161	0.000601806640625	0.88043212890625
624	0.87890625	308.327414221548	0.00059112548828125	0.8782958984375
625	0.87646484375	308.351814221487	0.00058074951171875	0.875244140625
626	0.8740234375	308.376214221425	0.0005694580078125	0.872802734375
627	0.87158203125	308.400614221363	0.00056060791015625	0.87066650390625
628	0.869140625	308.425014221302	0.00054962158203125	0.86822509765625
629	0.86669921875	308.44941422124	0.0005413818359375	0.86578369140625
630	0.8642578125	308.473814221178	0.00053070068359375	0.863037109375
631	0.86181640625	308.498214221117	0.0005218505859375	0.86090087890625
632	0.859375	308.522614221055	0.0005126953125	0.8587646484375
633	0.85693359375	308.547014220994	0.00050323486328125	0.85601806640625
634	0.8544921875	308.571414220932	0.0004947509765625	0.85418701171875
635	0.85205078125	308.59581422087	0.00048455810546875	0.8514404296875
636	0.849609375	308.620214220809	0.000477508544921875	0.848388671875
637	0.84716796875	308.644614220747	0.000467926025390625	0.84625244140625
638	0.8447265625	308.669014220686	0.00046099853515625	0.84381103515625
639	0.84228515625	308.693414220624	0.0004520263671875	0.8416748046875
640	0.83984375	308.717814220562	0.0004439697265625	0.8392333984375
641	0.83740234375	308.742214220501	0.00043646240234375	0.8367919921875
642	0.8349609375	308.766614220439	0.000427642822265625	0.833740234375
643	0.83251953125	308.791014220378	0.000421478271484375	0.8319091796875
644	0.830078125	308.815414220316	0.000412139892578125	0.82916259765625
645	0.82763671875	308.839814220254	0.00040625	0.826416015625
646	0.8251953125	308.864214220193	0.000397918701171875	0.823974609375
647	0.82275390625	308.888614220131	0.000391204833984375	0.821533203125
648	0.8203125	308.91301422007	0.00038421630859375	0.81939697265625
649	0.81787109375	308.937414220008	0.000376373291015625	0.81756591796875
650	0.8154296875	308.961814219946	0.00037042236328125	0.81512451171875
651	0.81298828125	308.986214219885	0.00036212158203125	0.811767578125
652	0.810546875	309.010614219823	0.00035748291015625	0.80963134765625
653	0.80810546875	309.035014219762	0.000349365234375	0.8074951171875
654	0.8056640625	309.0594142197	0.00034393310546875	0.804443359375
655	0.80322265625	309.083814219638	0.000337005615234375	0.802001953125
656	0.80078125	309.108214219577	0.000330657958984375	0.8001708984375
657	0.79833984375	309.132614219515	0.00032513427734375	0.79742431640625
658	0.7958984375	309.157014219454	0.000317626953125	0.79498291015625
659	0.79345703125	309.181414219392	0.000313262939453125	0.792236328125
660	0.791015625	309.20581421933	0.00030609130859375	0.7904052734375
661	0.78857421875	309.230214219269	0.00030169677734375	0.787353515625
662	0.7861328125	309.254614219207	0.000294769287109375	0.784912109375
663	0.78369140625	309.279014219146	0.000289337158203125	0.78277587890625
664	0.78125	309.303414219084	0.000283843994140625	0.78033447265625
665	0.77880859375	309.327814219022	0.000278076171875	0.7781982421875
666	0.7763671875	309.352214218961	0.000273773193359375	0.77606201171875
667	0.77392578125	309.376614218899	0.000266357421875	0.7733154296875
668	0.771484375	309.401014218838	0.000262908935546875	0.7708740234375
669	0.76904296875	309.425414218776	0.0002564697265625	0.7684326171875
670	0.7666015625	309.449814218714	0.000252197265625	0.7659912109375
671	0.76416015625	309.474214218653	0.000246978759765625	0.76324462890625
672	0.76171875	309.498614218591	0.000241363525390625	0.76141357421875
673	0.75927734375	309.52301421853	0.000237274169921875	0.7586669921875
674	0.7568359375	309.547414218468	0.0002310791015625	0.755615234375
675	0.75439453125	309.571814218406	0.000227874755859375	0.7537841796875
676	0.751953125	309.596214218345	0.000221343994140625	0.7513427734375
677	0.74951171875	309.620614218283	0.0002181396484375	0.749267578125
678	0.7470703125	309.645014218221	0.00021282958984375	0.746826171875
679	0.74462890625	309.66941421816	0.000208648681640625	0.744384765625
680	0.7421875	309.693814218098	0.000204437255859375	0.741943359375
681	0.73974609375	309.718214218037	0.000198699951171875	0.739471435546875
682	0.7373046875	309.742614217975	0.000196044921875	0.737030029296875
683	0.73486328125	309.767014217913	0.000190399169921875	0.73468017578125
684	0.732421875	309.791414217852	0.00018792724609375	0.732208251953125
685	0.72998046875	309.81581421779	0.000182342529296875	0.729766845703125
686	0.7275390625	309.840214217729	0.000178619384765625	0.727294921875
687	0.72509765625	309.864614217667	0.00017449951171875	0.724884033203125
688	0.72265625	309.889014217605	0.000169830322265625	0.72247314453125
689	0.72021484375	309.913414217544	0.0001668701171875	0.720001220703125
690	0.7177734375	309.937814217482	0.0001614990234375	0.717559814453125
691	0.71533203125	309.962214217421	0.00015960693359375	0.71514892578125
692	0.712890625	309.986614217359	0.000154327392578125	0.712646484375
693	0.71044921875	310.011014217297	0.000151611328125	0.710235595703125
694	0.7080078125	310.035414217236	0.000147064208984375	0.707763671875
695	0.70556640625	310.059814217174	0.000143280029296875	0.705413818359375
696	0.703125	310.084214217113	0.0001405029296875	0.70294189453125
697	0.70068359375	310.108614217051	0.000135833740234375	0.700531005859375
698	0.6982421875	310.133014216989	0.000133880615234375	0.698089599609375
699	0.69580078125	310.157414216928	0.0001282958984375	0.695556640625
700	0.693359375	310.181814216866	0.000126739501953125	0.693084716796875
701	0.69091796875	310.206214216805	0.000122283935546875	0.690704345703125
702	0.6884765625	310.230614216743	0.00011981201171875	0.6883544921875
703	0.68603515625	310.255014216681	0.000116302490234375	0.685882568359375
704	0.68359375	310.27941421662	0.000112213134765625	0.683502197265625
705	0.68115234375	310.303814216558	0.000110321044921875	0.680938720703125
706	0.6787109375	310.328214216497	0.000105743408203125	0.678558349609375
707	0.67626953125	310.352614216435	0.000104461669921875	0.676116943359375
708	0.673828125	310.377014216373	9.967041015625E-05	0.6737060546875
709	0.67138671875	310.401414216312	9.7900390625E-05	0.6712646484375
710	0.6689453125	310.42581421625	9.4451904296875E-05	0.668792724609375
711	0.66650390625	310.450214216189	9.11865234375E-05	0.66632080078125
712	0.6640625	310.474614216127	8.905029296875E-05	0.663909912109375
713	0.66162109375	310.499014216065	8.49609375E-05	0.6612548828125
714	0.6591796875	310.523414216004	8.4197998046875E-05	0.658935546875
715	0.65673828125	310.547814215942	7.977294921875E-05	0.656463623046875
716	0.654296875	310.572214215881	7.8643798828125E-05	0.65411376953125
717	0.65185546875	310.596614215819	7.4859619140625E-05	0.651611328125
718	0.6494140625	310.621014215757	7.2509765625E-05	0.649139404296875
719	0.64697265625	310.645414215696	7.03125E-05	0.646728515625
720	0.64453125	310.669814215634	6.7108154296875E-05	0.644287109375
721	0.64208984375	310.694214215573	6.5887451171875E-05	0.641845703125
722	0.6396484375	310.718614215511	6.1370849609375E-05	0.639404296875
723	0.63720703125	310.743014215449	6.0821533203125E-05	0.636962890625
724	0.634765625	310.767414215388	5.70068359375E-05	0.6346435546875
725	0.63232421875	310.791814215326	5.5633544921875E-05	0.632110595703125
726	0.6298828125	310.816214215264	5.279541015625E-05	0.62969970703125
727	0.62744140625	310.840614215203	5.0048828125E-05	0.627197265625
728	0.625	310.865014215141	4.8614501953125E-05	0.624847412109375
729	0.62255859375	310.88941421508	4.50531005859375E-05	0.62237548828125
730	0.6201171875	310.913814215018	4.483642578125E-05	0.619964599609375
731	0.61767578125	310.938214214956	4.066162109375E-05	0.61749267578125
732	0.615234375	310.962614214895	3.98529052734375E-05	0.6151123046875
733	0.61279296875	310.987014214833	3.71795654296875E-05	0.61260986328125
734	0.6103515625	311.011414214772	3.52691650390625E-05	0.610198974609375
735	0.60791015625	311.03581421471	3.33038330078125E-05	0.607757568359375
736	0.60546875	311.060214214648	3.00933837890625E-05	0.60528564453125
737	0.60302734375	311.084614214587	2.952880859375E-05	0.6029052734375
738	0.6005859375	311.109014214525	2.61138916015625E-05	0.600494384765625
739	0.59814453125	311.133414214464	2.61138916015625E-05	0.598052978515625
740	0.595703125	311.157814214402	2.25616455078125E-05	0.59552001953125
741	0.59326171875	311.18221421434	2.1478271484375E-05	0.593109130859375
742	0.5908203125	311.206614214279	1.939697265625E-05	0.590667724609375
743	0.58837890625	311.231014214217	1.7108154296875E-05	0.588226318359375
744	0.5859375	311.255414214156	1.636962890625E-05	0.5858154296875
745	0.58349609375	311.279814214094	1.28936767578125E-05	0.5833740234375
746	0.5810546875	311.304214214032	1.304931640625E-05	0.580902099609375
747	0.57861328125	311.328614213971	9.6588134765625E-06	0.5784912109375
748	0.576171875	311.353014213909	9.564208984375E-06	0.5760498046875
749	0.57373046875	311.377414213848	6.7779541015625E-06	0.573638916015625
750	0.5712890625	311.401814213786	5.11474609375E-06	0.5711669921875
751	0.56884765625	311.426214213724	4.168701171875E-06	0.568756103515625
752	0.56640625	311.450614213663	1.4385986328125E-06	0.56634521484375
753	0.56396484375	311.475014213601	1.6156005859375E-06	0.56390380859375
754	0.5615234375	311.49941421354	-2.27447509765625E-06	0.56146240234375
755	0.55908203125	311.523814213478	-1.7449951171875E-06	0.55908203125
756	0.556640625	311.548214213416	-4.3609619140625E-06	0.556610107421875
757	0.55419921875	311.572614213355	-5.1849365234375E-06	0.55419921875
758	0.5517578125	311.597014213293	-6.8939208984375E-06	0.551788330078125
759	0.54931640625	311.621414213232	-9.1522216796875E-06	0.54937744140625
760	0.546875	311.64581421317	-9.3109130859375E-06	0.546844482421875
761	0.54443359375	311.670214213108	-1.22283935546875E-05	0.54449462890625
762	0.5419921875	311.694614213047	-1.143798828125E-05	0.5421142578125
763	0.53955078125	311.719014212985	-1.46148681640625E-05	0.53961181640625
764	0.537109375	311.743414212924	-1.47430419921875E-05	0.537261962890625
765	0.53466796875	311.767814212862	-1.66168212890625E-05	0.53485107421875
766	0.5322265625	311.7922142128	-1.783447265625E-05	0.532440185546875
767	0.52978515625	311.816614212739	-1.8524169921875E-05	0.529937744140625
768	0.52734375	311.841014212677	-2.1112060546875E-05	0.527587890625
769	0.52490234375	311.865414212616	-2.0550537109375E-05	0.52508544921875
770	0.5224609375	311.889814212554	-2.31781005859375E-05	0.522705078125
771	0.52001953125	311.914214212492	-2.25555419921875E-05	0.520355224609375
772	0.517578125	311.938614212431	-2.51251220703125E-05	0.517822265625
773	0.51513671875	311.963014212369	-2.56927490234375E-05	0.51544189453125
774	0.5126953125	311.987414212307	-2.6470947265625E-05	0.51300048828125
775	0.51025390625	312.011814212246	-2.8228759765625E-05	0.5106201171875
776	0.5078125	312.036214212184	-2.79144287109375E-05	0.50811767578125
777	0.50537109375	312.060614212123	-3.099365234375E-05	0.505706787109375
778	0.5029296875	312.085014212061	-2.98980712890625E-05	0.50286865234375
779	0.50048828125	312.109414211999	-3.2440185546875E-05	0.50048828125
780	0.498046875	312.133814211938	-3.21533203125E-05	0.498046875
781	0.49560546875	312.158214211876	-3.36456298828125E-05	0.49560546875
782	0.4931640625	312.182614211815	-3.50921630859375E-05	0.493133544921875
783	0.49072265625	312.207014211753	-3.52569580078125E-05	0.49078369140625
784	0.48828125	312.231414211691	-3.7579345703125E-05	0.48828125
785	0.48583984375	312.25581421163	-3.6639404296875E-05	0.48583984375
786	0.4833984375	312.280214211568	-3.94561767578125E-05	0.483428955078125
787	0.48095703125	312.304614211507	-3.878173828125E-05	0.480987548828125
788	0.478515625	312.329014211445	-4.04876708984375E-05	0.478546142578125
789	0.47607421875	312.353414211383	-4.105224609375E-05	0.476104736328125
790	0.4736328125	312.377814211322	-4.1595458984375E-05	0.47369384765625
791	0.47119140625	312.40221421126	-4.35882568359375E-05	0.47119140625
792	0.46875	312.426614211199	-4.28802490234375E-05	0.468780517578125
793	0.46630859375	312.451014211137	-4.51446533203125E-05	0.46630859375
794	0.4638671875	312.475414211075	-4.4085693359375E-05	0.46392822265625
795	0.46142578125	312.499814211014	-4.64080810546875E-05	0.46142578125
796	0.458984375	312.524214210952	-4.64019775390625E-05	0.458984375
797	0.45654296875	312.548614210891	-4.73602294921875E-05	0.45654296875
798	0.4541015625	312.573014210829	-4.8370361328125E-05	0.45416259765625
799	0.45166015625	312.597414210767	-4.79736328125E-05	0.45166015625
800	0.44921875	312.621814210706	-5.0567626953125E-05	0.44915771484375
801	0.44677734375	312.646214210644	-4.91943359375E-05	0.44677734375
802	0.4443359375	312.670614210583	-5.126953125E-05	0.4443359375
803	0.44189453125	312.695014210521	-5.059814453125E-05	0.44189453125
804	0.439453125	312.719414210459	-5.218505859375E-05	0.439422607421875
805	0.43701171875	312.743814210398	-5.2703857421875E-05	0.43701171875
806	0.4345703125	312.768214210336	-5.2581787109375E-05	0.434539794921875
807	0.43212890625	312.792614210275	-5.438232421875E-05	0.432159423828125
808	0.4296875	312.817014210213	-5.33447265625E-05	0.429718017578125
809	0.42724609375	312.841414210151	-5.5938720703125E-05	0.42724609375
810	0.4248046875	312.86581421009	-5.4534912109375E-05	0.424835205078125
811	0.42236328125	312.890214210028	-5.621337890625E-05	0.422393798828125
812	0.419921875	312.914614209967	-5.60302734375E-05	0.419952392578125
813	0.41748046875	312.939014209905	-5.6854248046875E-05	0.417510986328125
814	0.4150390625	312.963414209843	-5.8258056640625E-05	0.4150390625
815	0.41259765625	312.987814209782	-5.743408203125E-05	0.412628173828125
816	0.41015625	313.01221420972	-5.94482421875E-05	0.410125732421875
817	0.40771484375	313.036614209659	-5.7861328125E-05	0.407745361328125
818	0.4052734375	313.061014209597	-6.0150146484375E-05	0.40521240234375
819	0.40283203125	313.085414209535	-5.95703125E-05	0.40283203125
820	0.400390625	313.109814209474	-6.0394287109375E-05	0.40032958984375
821	0.39794921875	313.134214209412	-6.085205078125E-05	0.397979736328125
822	0.3955078125	313.158614209351	-6.0516357421875E-05	0.39556884765625
823	0.39306640625	313.183014209289	-6.256103515625E-05	0.393096923828125
824	0.390625	313.207414209227	-6.103515625E-05	0.390655517578125
825	0.38818359375	313.231814209166	-6.3323974609375E-05	0.38818359375
826	0.3857421875	313.256214209104	-6.1737060546875E-05	0.3857421875
827	0.38330078125	313.280614209042	-6.341552734375E-05	0.383331298828125
828	0.380859375	313.305014208981	-6.353759765625E-05	0.380889892578125
829	0.37841796875	313.329414208919	-6.365966796875E-05	0.378387451171875
830	0.3759765625	313.353814208858	-6.4788818359375E-05	0.37603759765625
831	0.37353515625	313.378214208796	-6.3568115234375E-05	0.37353515625
832	0.37109375	313.402614208734	-6.5826416015625E-05	0.37115478515625
833	0.36865234375	313.427014208673	-6.396484375E-05	0.36865234375
834	0.3662109375	313.451414208611	-6.591796875E-05	0.366241455078125
835	0.36376953125	313.47581420855	-6.5216064453125E-05	0.363800048828125
836	0.361328125	313.500214208488	-6.6070556640625E-05	0.36138916015625
837	0.35888671875	313.524614208426	-6.6864013671875E-05	0.358917236328125
838	0.3564453125	313.549014208365	-6.610107421875E-05	0.35650634765625
839	0.35400390625	313.573414208303	-6.7901611328125E-05	0.354095458984375
840	0.3515625	313.597814208242	-6.6375732421875E-05	0.35162353515625
841	0.34912109375	313.62221420818	-6.8634033203125E-05	0.349212646484375
842	0.3466796875	313.646614208118	-6.73828125E-05	0.34674072265625
843	0.34423828125	313.671014208057	-6.842041015625E-05	0.344268798828125
844	0.341796875	313.695414207995	-6.8267822265625E-05	0.341796875
845	0.33935546875	313.719814207934	-6.82373046875E-05	0.33941650390625
846	0.3369140625	313.744214207872	-6.976318359375E-05	0.336944580078125
847	0.33447265625	313.76861420781	-6.8389892578125E-05	0.33453369140625
848	0.33203125	313.793014207749	-7.025146484375E-05	0.332061767578125
849	0.32958984375	313.817414207687	-6.8359375E-05	0.32965087890625
850	0.3271484375	313.841814207626	-7.0281982421875E-05	0.327178955078125
851	0.32470703125	313.866214207564	-6.9915771484375E-05	0.324737548828125
852	0.322265625	313.890614207502	-7.0281982421875E-05	0.322265625
853	0.31982421875	313.915014207441	-7.0770263671875E-05	0.319915771484375
854	0.3173828125	313.939414207379	-6.9915771484375E-05	0.317474365234375
855	0.31494140625	313.963814207318	-7.2174072265625E-05	0.314971923828125
856	0.3125	313.988214207256	-7.0220947265625E-05	0.3125
857	0.31005859375	314.012614207194	-7.2021484375E-05	0.310150146484375
858	0.3076171875	314.037014207133	-7.080078125E-05	0.30767822265625
859	0.30517578125	314.061414207071	-7.1685791015625E-05	0.305267333984375
860	0.302734375	314.08581420701	-7.196044921875E-05	0.30279541015625
861	0.30029296875	314.110214206948	-7.1319580078125E-05	0.30029296875
862	0.2978515625	314.134614206886	-7.269287109375E-05	0.2978515625
863	0.29541015625	314.159014206825	-7.1136474609375E-05	0.295440673828125
864	0.29296875	314.183414206763	-7.3333740234375E-05	0.29302978515625
865	0.29052734375	314.207814206702	-7.159423828125E-05	0.29058837890625
866	0.2880859375	314.23221420664	-7.2845458984375E-05	0.288177490234375
867	0.28564453125	314.256614206578	-7.2479248046875E-05	0.285736083984375
868	0.283203125	314.281014206517	-7.275390625E-05	0.2833251953125
869	0.28076171875	314.305414206455	-7.3883056640625E-05	0.280853271484375
870	0.2783203125	314.329814206394	-7.2479248046875E-05	0.278350830078125
871	0.27587890625	314.354214206332	-7.421875E-05	0.27593994140625
872	0.2734375	314.37861420627	-7.2265625E-05	0.27349853515625
873	0.27099609375	314.403014206209	-7.43408203125E-05	0.271026611328125
874	0.2685546875	314.427414206147	-7.3455810546875E-05	0.26861572265625
875	0.26611328125	314.451814206085	-7.4066162109375E-05	0.266143798828125
876	0.263671875	314.476214206024	-7.421875E-05	0.263702392578125
877	0.26123046875	314.500614205962	-7.36083984375E-05	0.261322021484375
878	0.2587890625	314.525014205901	-7.5408935546875E-05	0.25885009765625
879	0.25634765625	314.549414205839	-7.342529296875E-05	0.25640869140625
880	0.25390625	314.573814205777	-7.525634765625E-05	0.253997802734375
881	0.25146484375	314.598214205716	-7.3822021484375E-05	0.251556396484375
882	0.2490234375	314.622614205654	-7.5164794921875E-05	0.249114990234375
883	0.24658203125	314.647014205593	-7.5103759765625E-05	0.24664306640625
884	0.244140625	314.671414205531	-7.48291015625E-05	0.24420166015625
885	0.24169921875	314.695814205469	-7.5897216796875E-05	0.241790771484375
886	0.2392578125	314.720214205408	-7.4554443359375E-05	0.239288330078125
887	0.23681640625	314.744614205346	-7.6751708984375E-05	0.23687744140625
888	0.234375	314.769014205285	-7.4859619140625E-05	0.2344970703125
889	0.23193359375	314.793414205223	-7.62939453125E-05	0.2320556640625
890	0.2294921875	314.817814205161	-7.5531005859375E-05	0.229583740234375
891	0.22705078125	314.8422142051	-7.6141357421875E-05	0.22723388671875
892	0.224609375	314.866614205038	-7.684326171875E-05	0.22467041015625
893	0.22216796875	314.891014204977	-7.58056640625E-05	0.2222900390625
894	0.2197265625	314.915414204915	-7.733154296875E-05	0.219818115234375
895	0.21728515625	314.939814204853	-7.5439453125E-05	0.217376708984375
896	0.21484375	314.964214204792	-7.763671875E-05	0.214935302734375
897	0.21240234375	314.98861420473	-7.62939453125E-05	0.21246337890625
898	0.2099609375	315.013014204669	-7.70263671875E-05	0.21002197265625
899	0.20751953125	315.037414204607	-7.6873779296875E-05	0.207672119140625
900	0.205078125	315.061814204545	-7.6507568359375E-05	0.2052001953125
901	0.20263671875	315.086214204484	-7.794189453125E-05	0.2027587890625
902	0.2001953125	315.110614204422	-7.635498046875E-05	0.200286865234375
903	0.19775390625	315.135014204361	-7.806396484375E-05	0.19781494140625
904	0.1953125	315.159414204299	-7.60498046875E-05	0.19537353515625
905	0.19287109375	315.183814204237	-7.7728271484375E-05	0.192962646484375
906	0.1904296875	315.208214204176	-7.7301025390625E-05	0.1905517578125
907	0.18798828125	315.232614204114	-7.7392578125E-05	0.188079833984375
908	0.185546875	315.257014204053	-7.8125E-05	0.185638427734375
909	0.18310546875	315.281414203991	-7.6995849609375E-05	0.183197021484375
910	0.1806640625	315.305814203929	-7.904052734375E-05	0.180755615234375
911	0.17822265625	315.330214203868	-7.6995849609375E-05	0.178375244140625
912	0.17578125	315.354614203806	-7.8582763671875E-05	0.17584228515625
913	0.17333984375	315.379014203745	-7.7423095703125E-05	0.17340087890625
914	0.1708984375	315.403414203683	-7.830810546875E-05	0.170989990234375
915	0.16845703125	315.427814203621	-7.8643798828125E-05	0.168548583984375
916	0.166015625	315.45221420356	-7.7850341796875E-05	0.1661376953125
917	0.16357421875	315.476614203498	-7.9132080078125E-05	0.1636962890625
918	0.1611328125	315.501014203437	-7.7301025390625E-05	0.161224365234375
919	0.15869140625	315.525414203375	-7.9498291015625E-05	0.15875244140625
920	0.15625	315.549814203313	-7.7789306640625E-05	0.156341552734375
921	0.15380859375	315.574214203252	-7.8826904296875E-05	0.153900146484375
922	0.1513671875	315.59861420319	-7.830810546875E-05	0.1514892578125
923	0.14892578125	315.623014203128	-7.8369140625E-05	0.149078369140625
924	0.146484375	315.647414203067	-7.94677734375E-05	0.1466064453125
925	0.14404296875	315.671814203005	-7.80029296875E-05	0.144134521484375
926	0.1416015625	315.696214202944	-7.9620361328125E-05	0.141754150390625
927	0.13916015625	315.720614202882	-7.763671875E-05	0.139312744140625
928	0.13671875	315.74501420282	-7.952880859375E-05	0.136810302734375
929	0.13427734375	315.769414202759	-7.861328125E-05	0.134429931640625
930	0.1318359375	315.793814202697	-7.891845703125E-05	0.131988525390625
931	0.12939453125	315.818214202636	-7.928466796875E-05	0.129547119140625
932	0.126953125	315.842614202574	-7.8521728515625E-05	0.1270751953125
933	0.12451171875	315.867014202512	-8.0291748046875E-05	0.12469482421875
934	0.1220703125	315.891414202451	-7.8369140625E-05	0.12225341796875
935	0.11962890625	315.915814202389	-8.0169677734375E-05	0.1197509765625
936	0.1171875	315.940214202328	-7.84912109375E-05	0.117340087890625
937	0.11474609375	315.964614202266	-7.9742431640625E-05	0.1148681640625
938	0.1123046875	315.989014202204	-7.9681396484375E-05	0.1124267578125
939	0.10986328125	316.013414202143	-7.928466796875E-05	0.109954833984375
940	0.107421875	316.037814202081	-8.04443359375E-05	0.107574462890625
941	0.10498046875	316.06221420202	-7.8887939453125E-05	0.105133056640625
942	0.1025390625	316.086614201958	-8.1024169921875E-05	0.1026611328125
943	0.10009765625	316.111014201896	-7.9193115234375E-05	0.1002197265625
944	0.09765625	316.135414201835	-8.062744140625E-05	0.09783935546875
945	0.09521484375	316.159814201773	-7.97119140625E-05	0.095306396484375
946	0.0927734375	316.184214201712	-8.013916015625E-05	0.092926025390625
947	0.09033203125	316.20861420165	-8.0902099609375E-05	0.09051513671875
948	0.087890625	316.233014201588	-7.9803466796875E-05	0.08795166015625
949	0.08544921875	316.257414201527	-8.148193359375E-05	0.085540771484375
950	0.0830078125	316.281814201465	-7.952880859375E-05	0.083160400390625
951	0.08056640625	316.306214201404	-8.1634521484375E-05	0.080657958984375
952	0.078125	316.330614201342	-8.0322265625E-05	0.078277587890625
953	0.07568359375	316.35501420128	-8.1024169921875E-05	0.075775146484375
954	0.0732421875	316.379414201219	-8.1024169921875E-05	0.073333740234375
955	0.07080078125	316.403814201157	-8.062744140625E-05	0.070953369140625
956	0.068359375	316.428214201096	-8.221435546875E-05	0.0684814453125
957	0.06591796875	316.452614201034	-8.0413818359375E-05	0.066070556640625
958	0.0634765625	316.477014200972	-8.2275390625E-05	0.06365966796875
959	0.06103515625	316.501414200911	-8.0413818359375E-05	0.0611572265625
960	0.05859375	316.525814200849	-8.2061767578125E-05	0.058746337890625
961	0.05615234375	316.550214200788	-8.16650390625E-05	0.056243896484375
962	0.0537109375	316.574614200726	-8.16650390625E-05	0.0538330078125
963	0.05126953125	316.599014200664	-8.245849609375E-05	0.051422119140625
964	0.048828125	316.623414200603	-8.111572265625E-05	0.048980712890625
965	0.04638671875	316.647814200541	-8.319091796875E-05	0.046533203125
966	0.0439453125	316.67221420048	-8.11767578125E-05	0.044091796875
967	0.04150390625	316.696614200418	-8.28857421875E-05	0.0416778564453125
968	0.0390625	316.721014200356	-8.172607421875E-05	0.0392181396484375
969	0.03662109375	316.745414200295	-8.26416015625E-05	0.03677978515625
970	0.0341796875	316.769814200233	-8.2977294921875E-05	0.0343292236328125
971	0.03173828125	316.794214200171	-8.2183837890625E-05	0.0318939208984375
972	0.029296875	316.81861420011	-8.3648681640625E-05	0.02945556640625
973	0.02685546875	316.843014200048	-8.19091796875E-05	0.0270294189453125
974	0.0244140625	316.867414199987	-8.416748046875E-05	0.0245849609375
975	0.02197265625	316.891814199925	-8.23974609375E-05	0.022125244140625
976	0.01953125	316.916214199863	-8.3587646484375E-05	0.0196807861328125
977	0.01708984375	316.940614199802	-8.31298828125E-05	0.01724853515625
978	0.0146484375	316.96501419974	-8.3221435546875E-05	0.014837646484375
979	0.01220703125	316.989414199679	-8.441162109375E-05	0.012359619140625
980	0.009765625	317.013814199617	-8.28857421875E-05	0.0099212646484375
981	0.00732421875	317.038214199555	-8.4686279296875E-05	0.0074798583984375
982	0.0048828125	317.062614199494	-8.2672119140625E-05	0.0050537109375
983	0.00244140625	317.087014199432	-8.4625244140625E-05	0.00257568359375
984	0	317.111414199371	-8.367919921875E-05	0.000149536132812503
985	0.00244140625	317.135814199309	-8.392333984375E-05	0.002581787109375
986	0.0048828125	317.160214199247	-8.404541015625E-05	0.00505676269531249
987	0.00732421875	317.184614199186	-8.31298828125E-05	0.00749816894531249
988	0.009765625	317.209014199124	-8.4808349609375E-05	0.0099365234375
989	0.01220703125	317.233414199063	-8.2672119140625E-05	0.01236572265625
990	0.0146484375	317.257814199001	-8.43505859375E-05	0.014813232421875
991	0.01708984375	317.282214198939	-8.251953125E-05	0.0172515869140625
992	0.01953125	317.306614198878	-8.3648681640625E-05	0.0197052001953125
993	0.02197265625	317.331014198816	-8.33740234375E-05	0.0221282958984375
