Index	Potential applied (V)	Time (s)	WE(1).Current (A)	WE(1).Potential (V)
1	0.00244140625	6.66393998317517	-8.8592529296875E-05	0.0025909423828125
2	0.0048828125	6.68833998311356	-8.8470458984375E-05	0.0050506591796875
3	0.00732421875	6.71273998305196	-8.770751953125E-05	0.00748291015624999
4	0.009765625	6.73713998299036	-8.9141845703125E-05	0.00992431640624999
5	0.01220703125	6.76153998292875	-8.72802734375E-05	0.012371826171875
6	0.0146484375	6.78593998286715	-8.9080810546875E-05	0.0148101806640625
7	0.01708984375	6.81033998280554	-8.67919921875E-05	0.0172576904296875
8	0.01953125	6.83473998274394	-8.8470458984375E-05	0.01966552734375
9	0.02197265625	6.85913998268234	-8.740234375E-05	0.02213134765625
10	0.0244140625	6.88353998262073	-8.758544921875E-05	0.0245574951171875
11	0.02685546875	6.90793998255913	-8.782958984375E-05	0.027001953125
12	0.029296875	6.93233998249752	-8.6944580078125E-05	0.0294464111328125
13	0.03173828125	6.95673998243592	-8.856201171875E-05	0.031890869140625
14	0.0341796875	6.98113998237432	-8.63037109375E-05	0.034332275390625
15	0.03662109375	7.00553998231271	-8.8043212890625E-05	0.0367706298828125
16	0.0390625	7.02993998225111	-8.6029052734375E-05	0.0392181396484375
17	0.04150390625	7.0543399821895	-8.7554931640625E-05	0.0416778564453125
18	0.0439453125	7.0787399821279	-8.69140625E-05	0.044085693359375
19	0.04638671875	7.1031399820663	-8.6761474609375E-05	0.04652099609375
20	0.048828125	7.12753998200469	-8.72802734375E-05	0.0489776611328125
21	0.05126953125	7.15193998194309	-8.599853515625E-05	0.0513916015625
22	0.0537109375	7.17633998188148	-8.7890625E-05	0.05389404296875
23	0.05615234375	7.20073998181988	-8.5540771484375E-05	0.056304931640625
24	0.05859375	7.22513998175828	-8.709716796875E-05	0.05877685546875
25	0.06103515625	7.24953998169667	-8.53271484375E-05	0.061187744140625
26	0.0634765625	7.27393998163507	-8.6456298828125E-05	0.063629150390625
27	0.06591796875	7.29833998157346	-8.624267578125E-05	0.06610107421875
28	0.068359375	7.32273998151186	-8.575439453125E-05	0.068511962890625
29	0.07080078125	7.34713998145025	-8.65478515625E-05	0.070953369140625
30	0.0732421875	7.37153998138865	-8.489990234375E-05	0.073394775390625
31	0.07568359375	7.39593998132705	-8.6883544921875E-05	0.075836181640625
32	0.078125	7.42033998126544	-8.4564208984375E-05	0.07830810546875
33	0.08056640625	7.44473998120384	-8.612060546875E-05	0.080780029296875
34	0.0830078125	7.46913998114223	-8.4716796875E-05	0.083160400390625
35	0.08544921875	7.49353998108063	-8.538818359375E-05	0.085601806640625
36	0.087890625	7.51793998101903	-8.544921875E-05	0.0880126953125
37	0.09033203125	7.54233998095742	-8.45947265625E-05	0.0904541015625
38	0.0927734375	7.56673998089582	-8.5693359375E-05	0.092926025390625
39	0.09521484375	7.59113998083421	-8.38623046875E-05	0.095367431640625
40	0.09765625	7.61553998077261	-8.5968017578125E-05	0.097808837890625
41	0.10009765625	7.63993998071101	-8.3770751953125E-05	0.1002197265625
42	0.1025390625	7.6643399806494	-8.502197265625E-05	0.102691650390625
43	0.10498046875	7.6887399805878	-8.392333984375E-05	0.105194091796875
44	0.107421875	7.71313998052619	-8.4381103515625E-05	0.107574462890625
45	0.10986328125	7.73753998046459	-8.48388671875E-05	0.10992431640625
46	0.1123046875	7.76193998040299	-8.36181640625E-05	0.112457275390625
47	0.11474609375	7.78633998034138	-8.4991455078125E-05	0.114837646484375
48	0.1171875	7.81073998027978	-8.2855224609375E-05	0.117340087890625
49	0.11962890625	7.83513998021817	-8.4930419921875E-05	0.119720458984375
50	0.1220703125	7.85953998015657	-8.294677734375E-05	0.1221923828125
51	0.12451171875	7.88393998009496	-8.4014892578125E-05	0.1246337890625
52	0.126953125	7.90833998003336	-8.3282470703125E-05	0.127105712890625
53	0.12939453125	7.93273997997176	-8.331298828125E-05	0.12957763671875
54	0.1318359375	7.95713997991015	-8.416748046875E-05	0.1319580078125
55	0.13427734375	7.98153997984855	-8.26416015625E-05	0.1343994140625
56	0.13671875	8.00593997978694	-8.416748046875E-05	0.1368408203125
57	0.13916015625	8.03033997972534	-8.197021484375E-05	0.139312744140625
58	0.1416015625	8.05473997966374	-8.3953857421875E-05	0.1417236328125
59	0.14404296875	8.07913997960213	-8.2183837890625E-05	0.1441650390625
60	0.146484375	8.10353997954053	-8.28857421875E-05	0.1466064453125
61	0.14892578125	8.12793997947892	-8.2427978515625E-05	0.1490478515625
62	0.1513671875	8.15233997941732	-8.2061767578125E-05	0.1514892578125
63	0.15380859375	8.17673997935572	-8.31298828125E-05	0.153961181640625
64	0.15625	8.20113997929411	-8.135986328125E-05	0.1563720703125
65	0.15869140625	8.22553997923251	-8.2977294921875E-05	0.1588134765625
66	0.1611328125	8.2499399791709	-8.0810546875E-05	0.161224365234375
67	0.16357421875	8.2743399791093	-8.2733154296875E-05	0.163665771484375
68	0.166015625	8.2987399790477	-8.1390380859375E-05	0.166107177734375
69	0.16845703125	8.32313997898609	-8.184814453125E-05	0.168548583984375
70	0.1708984375	8.34753997892449	-8.172607421875E-05	0.1710205078125
71	0.17333984375	8.37193997886288	-8.1024169921875E-05	0.173492431640625
72	0.17578125	8.39633997880128	-8.233642578125E-05	0.175872802734375
73	0.17822265625	8.42073997873968	-8.0413818359375E-05	0.1783447265625
74	0.1806640625	8.44513997867807	-8.2122802734375E-05	0.180755615234375
75	0.18310546875	8.46953997861647	-7.99560546875E-05	0.183258056640625
76	0.185546875	8.49393997855486	-8.1695556640625E-05	0.185638427734375
77	0.18798828125	8.51833997849326	-8.06884765625E-05	0.188079833984375
78	0.1904296875	8.54273997843165	-8.062744140625E-05	0.19049072265625
79	0.19287109375	8.56713997837005	-8.0902099609375E-05	0.1929931640625
80	0.1953125	8.59153997830845	-7.9833984375E-05	0.1954345703125
81	0.19775390625	8.61593997824684	-8.1512451171875E-05	0.197845458984375
82	0.2001953125	8.64033997818524	-7.9376220703125E-05	0.200347900390625
83	0.20263671875	8.66473997812363	-8.1085205078125E-05	0.2027587890625
84	0.205078125	8.68913997806203	-7.9010009765625E-05	0.205169677734375
85	0.20751953125	8.71353997800043	-8.0413818359375E-05	0.20758056640625
86	0.2099609375	8.73793997793882	-7.9803466796875E-05	0.210052490234375
87	0.21240234375	8.76233997787722	-7.94677734375E-05	0.212493896484375
88	0.21484375	8.78673997781561	-7.9803466796875E-05	0.214996337890625
89	0.21728515625	8.81113997775401	-7.855224609375E-05	0.2174072265625
90	0.2197265625	8.83553997769241	-8.04443359375E-05	0.219818115234375
91	0.22216796875	8.8599399776308	-7.8277587890625E-05	0.2222900390625
92	0.224609375	8.8843399775692	-7.9833984375E-05	0.224700927734375
93	0.22705078125	8.90873997750759	-7.8125E-05	0.227203369140625
94	0.2294921875	8.93313997744599	-7.9071044921875E-05	0.22955322265625
95	0.23193359375	8.95753997738439	-7.879638671875E-05	0.232025146484375
96	0.234375	8.98193997732278	-7.8216552734375E-05	0.234405517578125
97	0.23681640625	9.00633997726118	-7.91015625E-05	0.236907958984375
98	0.2392578125	9.03073997719957	-7.7362060546875E-05	0.2393798828125
99	0.24169921875	9.05513997713797	-7.928466796875E-05	0.24176025390625
100	0.244140625	9.07953997707637	-7.6995849609375E-05	0.24420166015625
101	0.24658203125	9.10393997701476	-7.843017578125E-05	0.2467041015625
102	0.2490234375	9.12833997695316	-7.6995849609375E-05	0.24908447265625
103	0.25146484375	9.15273997689155	-7.75146484375E-05	0.251556396484375
104	0.25390625	9.17713997682995	-7.7545166015625E-05	0.253997802734375
105	0.25634765625	9.20153997676834	-7.6568603515625E-05	0.25640869140625
106	0.2587890625	9.22593997670674	-7.7606201171875E-05	0.25885009765625
107	0.26123046875	9.25033997664514	-7.586669921875E-05	0.26129150390625
108	0.263671875	9.27473997658353	-7.769775390625E-05	0.26373291015625
109	0.26611328125	9.29913997652193	-7.5439453125E-05	0.26617431640625
110	0.2685546875	9.32353997646032	-7.6568603515625E-05	0.26861572265625
111	0.27099609375	9.34793997639872	-7.537841796875E-05	0.2711181640625
112	0.2734375	9.37233997633712	-7.568359375E-05	0.27349853515625
113	0.27587890625	9.39673997627551	-7.6080322265625E-05	0.2760009765625
114	0.2783203125	9.42113997621391	-7.4859619140625E-05	0.278411865234375
115	0.28076171875	9.4455399761523	-7.60498046875E-05	0.280853271484375
116	0.283203125	9.4699399760907	-7.3822021484375E-05	0.283294677734375
117	0.28564453125	9.4943399760291	-7.5775146484375E-05	0.28570556640625
118	0.2880859375	9.51873997596749	-7.403564453125E-05	0.288177490234375
119	0.29052734375	9.54313997590589	-7.4981689453125E-05	0.29058837890625
120	0.29296875	9.56753997584428	-7.415771484375E-05	0.2930908203125
121	0.29541015625	9.59193997578268	-7.391357421875E-05	0.29547119140625
122	0.2978515625	9.61633997572108	-7.4462890625E-05	0.29791259765625
123	0.30029296875	9.64073997565947	-7.2906494140625E-05	0.30035400390625
124	0.302734375	9.66513997559787	-7.440185546875E-05	0.302764892578125
125	0.30517578125	9.68953997553626	-7.220458984375E-05	0.305206298828125
126	0.3076171875	9.71393997547466	-7.403564453125E-05	0.307647705078125
127	0.31005859375	9.73833997541306	-7.2418212890625E-05	0.31011962890625
128	0.3125	9.76273997535145	-7.2906494140625E-05	0.312530517578125
129	0.31494140625	9.78713997528985	-7.232666015625E-05	0.315032958984375
130	0.3173828125	9.81153997522824	-7.1746826171875E-05	0.31744384765625
131	0.31982421875	9.83593997516664	-7.281494140625E-05	0.31988525390625
132	0.322265625	9.86033997510503	-7.1014404296875E-05	0.32232666015625
133	0.32470703125	9.88473997504343	-7.269287109375E-05	0.324798583984375
134	0.3271484375	9.90913997498183	-7.000732421875E-05	0.32720947265625
135	0.32958984375	9.93353997492022	-7.177734375E-05	0.329620361328125
136	0.33203125	9.95793997485862	-7.0465087890625E-05	0.332061767578125
137	0.33447265625	9.98233997479701	-7.061767578125E-05	0.334503173828125
138	0.3369140625	10.0067399747354	-7.0526123046875E-05	0.337005615234375
139	0.33935546875	10.0311399746738	-6.9580078125E-05	0.33941650390625
140	0.341796875	10.0555399746122	-7.086181640625E-05	0.341796875
141	0.34423828125	10.0799399745506	-6.8695068359375E-05	0.344268798828125
142	0.3466796875	10.104339974489	-7.0220947265625E-05	0.346710205078125
143	0.34912109375	10.1287399744274	-6.793212890625E-05	0.349151611328125
144	0.3515625	10.1531399743658	-6.915283203125E-05	0.351593017578125
145	0.35400390625	10.1775399743042	-6.805419921875E-05	0.354034423828125
146	0.3564453125	10.2019399742426	-6.77490234375E-05	0.3564453125
147	0.35888671875	10.226339974181	-6.7962646484375E-05	0.35894775390625
148	0.361328125	10.2507399741194	-6.67724609375E-05	0.361328125
149	0.36376953125	10.2751399740578	-6.8450927734375E-05	0.36376953125
150	0.3662109375	10.2995399739962	-6.585693359375E-05	0.366302490234375
151	0.36865234375	10.3239399739346	-6.72607421875E-05	0.36871337890625
152	0.37109375	10.348339973873	-6.5216064453125E-05	0.37109375
153	0.37353515625	10.3727399738113	-6.6070556640625E-05	0.373565673828125
154	0.3759765625	10.3971399737497	-6.54296875E-05	0.37603759765625
155	0.37841796875	10.4215399736881	-6.4697265625E-05	0.37841796875
156	0.380859375	10.4459399736265	-6.5216064453125E-05	0.380950927734375
157	0.38330078125	10.4703399735649	-6.35986328125E-05	0.38330078125
158	0.3857421875	10.4947399735033	-6.488037109375E-05	0.385772705078125
159	0.38818359375	10.5191399734417	-6.2530517578125E-05	0.38818359375
160	0.390625	10.5435399733801	-6.365966796875E-05	0.390716552734375
161	0.39306640625	10.5679399733185	-6.1859130859375E-05	0.393035888671875
162	0.3955078125	10.5923399732569	-6.2347412109375E-05	0.3955078125
163	0.39794921875	10.6167399731953	-6.21337890625E-05	0.397979736328125
164	0.400390625	10.6411399731337	-6.0882568359375E-05	0.400421142578125
165	0.40283203125	10.6655399730721	-6.14013671875E-05	0.40283203125
166	0.4052734375	10.6899399730105	-5.9417724609375E-05	0.4052734375
167	0.40771484375	10.7143399729489	-6.109619140625E-05	0.407745361328125
168	0.41015625	10.7387399728873	-5.8563232421875E-05	0.410186767578125
169	0.41259765625	10.7631399728257	-5.9356689453125E-05	0.412628173828125
170	0.4150390625	10.7875399727641	-5.767822265625E-05	0.4150390625
171	0.41748046875	10.8119399727025	-5.780029296875E-05	0.417510986328125
172	0.419921875	10.8363399726409	-5.7708740234375E-05	0.419952392578125
173	0.42236328125	10.8607399725793	-5.6182861328125E-05	0.42236328125
174	0.4248046875	10.8851399725177	-5.7342529296875E-05	0.424774169921875
175	0.42724609375	10.9095399724561	-5.4718017578125E-05	0.42724609375
176	0.4296875	10.9339399723945	-5.584716796875E-05	0.4296875
177	0.43212890625	10.9583399723329	-5.33447265625E-05	0.43212890625
178	0.4345703125	10.9827399722712	-5.4046630859375E-05	0.434539794921875
179	0.43701171875	11.0071399722096	-5.2581787109375E-05	0.43701171875
180	0.439453125	11.031539972148	-5.206298828125E-05	0.439483642578125
181	0.44189453125	11.0559399720864	-5.2154541015625E-05	0.441925048828125
182	0.4443359375	11.0803399720248	-5.0140380859375E-05	0.444305419921875
183	0.44677734375	11.1047399719632	-5.1055908203125E-05	0.44671630859375
184	0.44921875	11.1291399719016	-4.8492431640625E-05	0.449188232421875
185	0.45166015625	11.15353997184	-4.9591064453125E-05	0.451629638671875
186	0.4541015625	11.1779399717784	-4.74334716796875E-05	0.45404052734375
187	0.45654296875	11.2023399717168	-4.765625E-05	0.45660400390625
188	0.458984375	11.2267399716552	-4.65301513671875E-05	0.45904541015625
189	0.46142578125	11.2511399715936	-4.53369140625E-05	0.461456298828125
190	0.4638671875	11.275539971532	-4.5794677734375E-05	0.463897705078125
191	0.46630859375	11.2999399714704	-4.3292236328125E-05	0.466339111328125
192	0.46875	11.3243399714088	-4.42718505859375E-05	0.468780517578125
193	0.47119140625	11.3487399713472	-4.1180419921875E-05	0.471221923828125
194	0.4736328125	11.3731399712856	-4.20654296875E-05	0.4736328125
195	0.47607421875	11.397539971224	-4.022216796875E-05	0.47607421875
196	0.478515625	11.4219399711624	-4.007568359375E-05	0.478546142578125
197	0.48095703125	11.4463399711008	-3.92333984375E-05	0.48095703125
198	0.4833984375	11.4707399710392	-3.740234375E-05	0.483428955078125
199	0.48583984375	11.4951399709776	-3.82965087890625E-05	0.48590087890625
200	0.48828125	11.519539970916	-3.531494140625E-05	0.488311767578125
201	0.49072265625	11.5439399708544	-3.61236572265625E-05	0.49066162109375
202	0.4931640625	11.5683399707927	-3.32183837890625E-05	0.493133544921875
203	0.49560546875	11.5927399707311	-3.350830078125E-05	0.495574951171875
204	0.498046875	11.6171399706695	-3.1854248046875E-05	0.498016357421875
205	0.50048828125	11.6415399706079	-3.08135986328125E-05	0.50048828125
206	0.5029296875	11.6659399705463	-3.02581787109375E-05	0.502960205078125
207	0.50537109375	11.6903399704847	-2.81494140625E-05	0.505401611328125
208	0.5078125	11.7147399704231	-2.86285400390625E-05	0.5078125
209	0.51025390625	11.7391399703615	-2.52777099609375E-05	0.51025390625
210	0.5126953125	11.7635399702999	-2.59918212890625E-05	0.5126953125
211	0.51513671875	11.7879399702383	-2.314453125E-05	0.515106201171875
212	0.517578125	11.8123399701767	-2.32330322265625E-05	0.517547607421875
213	0.52001953125	11.8367399701151	-2.15240478515625E-05	0.520050048828125
214	0.5224609375	11.8611399700535	-1.983642578125E-05	0.522430419921875
215	0.52490234375	11.8855399699919	-1.94244384765625E-05	0.524932861328125
216	0.52734375	11.9099399699303	-1.65863037109375E-05	0.527374267578125
217	0.52978515625	11.9343399698687	-1.7431640625E-05	0.529754638671875
218	0.5322265625	11.9587399698071	-1.38580322265625E-05	0.532135009765625
219	0.53466796875	11.9831399697455	-1.3983154296875E-05	0.53466796875
220	0.537109375	12.0075399696839	-1.16119384765625E-05	0.537109375
221	0.53955078125	12.0319399696223	-1.08917236328125E-05	0.53948974609375
222	0.5419921875	12.0563399695607	-9.8052978515625E-06	0.54193115234375
223	0.54443359375	12.0807399694991	-7.403564453125E-06	0.54437255859375
224	0.546875	12.1051399694375	-6.9091796875E-06	0.54681396484375
225	0.54931640625	12.1295399693759	-3.619384765625E-06	0.54925537109375
226	0.5517578125	12.1539399693143	-4.168701171875E-06	0.55169677734375
227	0.55419921875	12.1783399692526	-6.7413330078125E-07	0.554168701171875
228	0.556640625	12.202739969191	-4.6783447265625E-07	0.556549072265625
229	0.55908203125	12.2271399691294	1.89239501953125E-06	0.559051513671875
230	0.5615234375	12.2515399690678	3.11279296875E-06	0.561370849609375
231	0.56396484375	12.2759399690062	4.1229248046875E-06	0.563812255859375
232	0.56640625	12.3003399689446	6.75048828125E-06	0.56622314453125
233	0.56884765625	12.324739968883	7.4310302734375E-06	0.568634033203125
234	0.5712890625	12.3491399688214	1.14288330078125E-05	0.571044921875
235	0.57373046875	12.3735399687598	1.1151123046875E-05	0.573394775390625
236	0.576171875	12.3979399686982	1.49139404296875E-05	0.575836181640625
237	0.57861328125	12.4223399686366	1.553955078125E-05	0.57818603515625
238	0.5810546875	12.446739968575	1.8170166015625E-05	0.5806884765625
239	0.58349609375	12.4711399685134	1.9793701171875E-05	0.5830078125
240	0.5859375	12.4955399684518	2.109375E-05	0.58544921875
241	0.58837890625	12.5199399683902	2.4456787109375E-05	0.587799072265625
242	0.5908203125	12.5443399683286	2.49359130859375E-05	0.59014892578125
243	0.59326171875	12.568739968267	2.91473388671875E-05	0.59259033203125
244	0.595703125	12.5931399682054	2.91595458984375E-05	0.5948486328125
245	0.59814453125	12.6175399681438	3.2769775390625E-05	0.597320556640625
246	0.6005859375	12.6419399680822	3.41033935546875E-05	0.600433349609375
247	0.60302734375	12.6663399680206	3.65447998046875E-05	0.6029052734375
248	0.60546875	12.690739967959	3.91082763671875E-05	0.60540771484375
249	0.60791015625	12.7151399678974	4.04327392578125E-05	0.607757568359375
250	0.6103515625	12.7395399678358	4.42962646484375E-05	0.61016845703125
251	0.61279296875	12.7639399677741	4.49005126953125E-05	0.61260986328125
252	0.615234375	12.7883399677125	4.9285888671875E-05	0.61505126953125
253	0.61767578125	12.8127399676509	4.9774169921875E-05	0.61749267578125
254	0.6201171875	12.8371399675893	5.33447265625E-05	0.619964599609375
255	0.62255859375	12.8615399675277	5.5389404296875E-05	0.62237548828125
256	0.625	12.8859399674661	5.7830810546875E-05	0.624847412109375
257	0.62744140625	12.9103399674045	6.085205078125E-05	0.627227783203125
258	0.6298828125	12.9347399673429	6.2103271484375E-05	0.629730224609375
259	0.63232421875	12.9591399672813	6.6802978515625E-05	0.63214111328125
260	0.634765625	12.9835399672197	6.7779541015625E-05	0.634552001953125
261	0.63720703125	13.0079399671581	7.2540283203125E-05	0.636993408203125
262	0.6396484375	13.0323399670965	7.36083984375E-05	0.639404296875
263	0.64208984375	13.0567399670349	7.7239990234375E-05	0.641845703125
264	0.64453125	13.0811399669733	8.0108642578125E-05	0.644256591796875
265	0.64697265625	13.1055399669117	8.270263671875E-05	0.646728515625
266	0.6494140625	13.1299399668501	8.6883544921875E-05	0.64910888671875
267	0.65185546875	13.1543399667885	8.807373046875E-05	0.651580810546875
268	0.654296875	13.1787399667269	9.332275390625E-05	0.654022216796875
269	0.65673828125	13.2031399666653	9.4573974609375E-05	0.656402587890625
270	0.6591796875	13.2275399666037	9.9822998046875E-05	0.658905029296875
271	0.66162109375	13.2519399665421	0.000101715087890625	0.661346435546875
272	0.6640625	13.2763399664805	0.000105712890625	0.663787841796875
273	0.66650390625	13.3007399664189	0.000109375	0.6661376953125
274	0.6689453125	13.3251399663573	0.00011224365234375	0.668609619140625
275	0.67138671875	13.3495399662957	0.000116424560546875	0.671112060546875
276	0.673828125	13.373939966234	0.000118194580078125	0.6734619140625
277	0.67626953125	13.3983399661724	0.00012371826171875	0.675872802734375
278	0.6787109375	13.4227399661108	0.000125732421875	0.6783447265625
279	0.68115234375	13.4471399660492	0.000130706787109375	0.6807861328125
280	0.68359375	13.4715399659876	0.000133331298828125	0.683197021484375
281	0.68603515625	13.495939965926	0.000137054443359375	0.685546875
282	0.6884765625	13.5203399658644	0.000141876220703125	0.68798828125
283	0.69091796875	13.5447399658028	0.000144775390625	0.690460205078125
284	0.693359375	13.5691399657412	0.0001502685546875	0.69287109375
285	0.69580078125	13.5935399656796	0.00015191650390625	0.6953125
286	0.6982421875	13.617939965618	0.00015814208984375	0.697784423828125
287	0.70068359375	13.6423399655564	0.000160797119140625	0.7001953125
288	0.703125	13.6667399654948	0.000166015625	0.70263671875
289	0.70556640625	13.6911399654332	0.000169403076171875	0.705047607421875
290	0.7080078125	13.7155399653716	0.000173675537109375	0.7073974609375
291	0.71044921875	13.73993996531	0.0001788330078125	0.709930419921875
292	0.712890625	13.7643399652484	0.0001822509765625	0.712310791015625
293	0.71533203125	13.7887399651868	0.000188446044921875	0.7147216796875
294	0.7177734375	13.8131399651252	0.00019091796875	0.7171630859375
295	0.72021484375	13.8375399650636	0.00019732666015625	0.719573974609375
296	0.72265625	13.861939965002	0.0002010498046875	0.722015380859375
297	0.72509765625	13.8863399649404	0.000206817626953125	0.7244873046875
298	0.7275390625	13.9107399648788	0.000211181640625	0.72686767578125
299	0.72998046875	13.9351399648172	0.0002156982421875	0.72930908203125
300	0.732421875	13.9595399647555	0.00022161865234375	0.73175048828125
301	0.73486328125	13.9839399646939	0.000225372314453125	0.734130859375
302	0.7373046875	14.0083399646323	0.000232391357421875	0.736602783203125
303	0.73974609375	14.0327399645707	0.000235748291015625	0.73895263671875
304	0.7421875	14.0571399645091	0.00024267578125	0.741424560546875
305	0.74462890625	14.0815399644475	0.000247314453125	0.74383544921875
306	0.7470703125	14.1059399643859	0.00025323486328125	0.746246337890625
307	0.74951171875	14.1303399643243	0.000259002685546875	0.748687744140625
308	0.751953125	14.1547399642627	0.00026336669921875	0.7513427734375
309	0.75439453125	14.1791399642011	0.000270416259765625	0.75347900390625
310	0.7568359375	14.2035399641395	0.000274810791015625	0.75653076171875
311	0.75927734375	14.2279399640779	0.00028271484375	0.7586669921875
312	0.76171875	14.2523399640163	0.000286865234375	0.76080322265625
313	0.76416015625	14.2767399639547	0.000294036865234375	0.76324462890625
314	0.7666015625	14.3011399638931	0.000300018310546875	0.76568603515625
315	0.76904296875	14.3255399638315	0.0003060302734375	0.767822265625
316	0.771484375	14.3499399637699	0.000312896728515625	0.7708740234375
317	0.77392578125	14.3743399637083	0.000318328857421875	0.77301025390625
318	0.7763671875	14.3987399636467	0.000326324462890625	0.7757568359375
319	0.77880859375	14.4231399635851	0.00033154296875	0.77789306640625
320	0.78125	14.4475399635235	0.000340118408203125	0.78033447265625
321	0.78369140625	14.4719399634619	0.000345611572265625	0.7830810546875
322	0.7861328125	14.4963399634003	0.00035345458984375	0.7861328125
323	0.78857421875	14.5207399633387	0.0003604736328125	0.78765869140625
324	0.791015625	14.5451399632771	0.00036700439453125	0.7904052734375
325	0.79345703125	14.5695399632154	0.0003751220703125	0.79254150390625
326	0.7958984375	14.5939399631538	0.000381103515625	0.79498291015625
327	0.79833984375	14.6183399630922	0.000390350341796875	0.7965087890625
328	0.80078125	14.6427399630306	0.00039697265625	0.8001708984375
329	0.80322265625	14.667139962969	0.000406005859375	0.8026123046875
330	0.8056640625	14.6915399629074	0.0004129638671875	0.80474853515625
331	0.80810546875	14.7159399628458	0.00042156982421875	0.8074951171875
332	0.810546875	14.7403399627842	0.000429290771484375	0.80963134765625
333	0.81298828125	14.7647399627226	0.000437042236328125	0.81146240234375
334	0.8154296875	14.789139962661	0.000446502685546875	0.81512451171875
335	0.81787109375	14.8135399625994	0.000453155517578125	0.8172607421875
336	0.8203125	14.8379399625378	0.0004638671875	0.8197021484375
337	0.82275390625	14.8623399624762	0.000471221923828125	0.821533203125
338	0.8251953125	14.8867399624146	0.00048089599609375	0.8245849609375
339	0.82763671875	14.911139962353	0.00048919677734375	0.82611083984375
340	0.830078125	14.9355399622914	0.000498046875	0.8294677734375
341	0.83251953125	14.9599399622298	0.00050750732421875	0.8319091796875
342	0.8349609375	14.9843399621682	0.000516357421875	0.83404541015625
343	0.83740234375	15.0087399621066	0.00052703857421875	0.836181640625
344	0.83984375	15.033139962045	0.0005352783203125	0.83831787109375
345	0.84228515625	15.0575399619834	0.00054656982421875	0.8416748046875
346	0.8447265625	15.0819399619218	0.000555419921875	0.84381103515625
347	0.84716796875	15.1063399618602	0.00056640625	0.8465576171875
348	0.849609375	15.1307399617986	0.000576171875	0.8489990234375
349	0.85205078125	15.1551399617369	0.0005865478515625	0.8514404296875
350	0.8544921875	15.1795399616753	0.00059814453125	0.8538818359375
351	0.85693359375	15.2039399616137	0.00060791015625	0.8563232421875
352	0.859375	15.2283399615521	0.0006201171875	0.85845947265625
353	0.86181640625	15.2527399614905	0.00062957763671875	0.8612060546875
354	0.8642578125	15.2771399614289	0.00064208984375	0.8636474609375
355	0.86669921875	15.3015399613673	0.0006524658203125	0.86578369140625
356	0.869140625	15.3259399613057	0.00066436767578125	0.86883544921875
357	0.87158203125	15.3503399612441	0.0006756591796875	0.87127685546875
358	0.8740234375	15.3747399611825	0.00068695068359375	0.87310791015625
359	0.87646484375	15.3991399611209	0.0007000732421875	0.8758544921875
360	0.87890625	15.4235399610593	0.00071075439453125	0.877685546875
361	0.88134765625	15.4479399609977	0.00072509765625	0.88043212890625
362	0.8837890625	15.4723399609361	0.00073638916015625	0.8831787109375
363	0.88623046875	15.4967399608745	0.00074981689453125	0.88531494140625
364	0.888671875	15.5211399608129	0.00076202392578125	0.887451171875
365	0.89111328125	15.5455399607513	0.00077545166015625	0.8905029296875
366	0.8935546875	15.5699399606897	0.00078857421875	0.892333984375
367	0.89599609375	15.5943399606281	0.00080169677734375	0.894775390625
368	0.8984375	15.6187399605665	0.00081634521484375	0.897216796875
369	0.90087890625	15.6431399605049	0.0008294677734375	0.89996337890625
370	0.9033203125	15.6675399604433	0.0008447265625	0.90179443359375
371	0.90576171875	15.6919399603817	0.00085845947265625	0.9051513671875
372	0.908203125	15.7163399603201	0.00087371826171875	0.9075927734375
373	0.91064453125	15.7407399602585	0.00088775634765625	0.90972900390625
374	0.9130859375	15.7651399601968	0.0009033203125	0.91217041015625
375	0.91552734375	15.7895399601352	0.00091888427734375	0.9149169921875
376	0.91796875	15.8139399600736	0.00093292236328125	0.91705322265625
377	0.92041015625	15.838339960012	0.00094970703125	0.919189453125
378	0.9228515625	15.8627399599504	0.00096527099609375	0.9222412109375
379	0.92529296875	15.8871399598888	0.000982666015625	0.92437744140625
380	0.927734375	15.9115399598272	0.00099822998046875	0.926513671875
381	0.93017578125	15.9359399597656	0.00101531982421875	0.9295654296875
382	0.9326171875	15.960339959704	0.00103271484375	0.93170166015625
383	0.93505859375	15.9847399596424	0.0010498046875	0.9344482421875
384	0.9375	16.0091399595808	0.001068115234375	0.93597412109375
385	0.93994140625	16.0335399595192	0.00108489990234375	0.93963623046875
386	0.9423828125	16.0579399594576	0.00110382080078125	0.941162109375
387	0.94482421875	16.082339959396	0.001121826171875	0.943603515625
388	0.947265625	16.1067399593344	0.00114166259765625	0.946044921875
389	0.94970703125	16.1311399592728	0.0011602783203125	0.94940185546875
390	0.9521484375	16.1555399592112	0.0011798095703125	0.950927734375
391	0.95458984375	16.1799399591496	0.001199951171875	0.9539794921875
392	0.95703125	16.204339959088	0.00121978759765625	0.95550537109375
393	0.95947265625	16.2287399590264	0.00124114990234375	0.9588623046875
394	0.9619140625	16.2531399589648	0.0012615966796875	0.960693359375
395	0.96435546875	16.2775399589032	0.00128326416015625	0.9637451171875
396	0.966796875	16.3019399588416	0.0013043212890625	0.96588134765625
397	0.96923828125	16.32633995878	0.00132720947265625	0.96832275390625
398	0.9716796875	16.3507399587183	0.00134918212890625	0.9710693359375
399	0.97412109375	16.3751399586567	0.0013720703125	0.9735107421875
400	0.9765625	16.3995399585951	0.00139556884765625	0.97564697265625
401	0.97900390625	16.4239399585335	0.00141845703125	0.977783203125
402	0.9814453125	16.4483399584719	0.00144378662109375	0.98114013671875
403	0.98388671875	16.4727399584103	0.00146728515625	0.98297119140625
404	0.986328125	16.4971399583487	0.00149261474609375	0.9857177734375
405	0.98876953125	16.5215399582871	0.0015179443359375	0.98724365234375
406	0.9912109375	16.5459399582255	0.00154449462890625	0.99029541015625
407	0.99365234375	16.5703399581639	0.00157073974609375	0.9930419921875
408	0.99609375	16.5947399581023	0.00159698486328125	0.99456787109375
409	0.99853515625	16.6191399580407	0.00162506103515625	0.9979248046875
410	1.0009765625	16.6435399579791	0.0016522216796875	1.00006103515625
411	1.00341796875	16.6679399579175	0.0016815185546875	1.0028076171875
412	1.005859375	16.6923399578559	0.00170928955078125	1.00494384765625
413	1.00830078125	16.7167399577943	0.0017388916015625	1.00738525390625
414	1.0107421875	16.7411399577327	0.001768798828125	1.0101318359375
415	1.01318359375	16.7655399576711	0.00179931640625	1.01226806640625
416	1.015625	16.7899399576095	0.00182952880859375	1.0150146484375
417	1.01806640625	16.8143399575479	0.0018609619140625	1.01715087890625
418	1.0205078125	16.8387399574863	0.00189300537109375	1.01959228515625
419	1.02294921875	16.8631399574247	0.001925048828125	1.02203369140625
420	1.025390625	16.8875399573631	0.0019586181640625	1.024169921875
421	1.02783203125	16.9119399573015	0.001990966796875	1.026611328125
422	1.0302734375	16.9363399572399	0.00202606201171875	1.0296630859375
423	1.03271484375	16.9607399571782	0.00206024169921875	1.03118896484375
424	1.03515625	16.9851399571166	0.00209564208984375	1.03424072265625
425	1.03759765625	17.009539957055	0.00213134765625	1.0369873046875
426	1.0400390625	17.0339399569934	0.0021673583984375	1.038818359375
427	1.04248046875	17.0583399569318	0.00220489501953125	1.04156494140625
428	1.044921875	17.0827399568702	0.0022418212890625	1.04400634765625
429	1.04736328125	17.1071399568086	0.0022802734375	1.0467529296875
430	1.0498046875	17.131539956747	0.00231842041015625	1.0491943359375
431	1.05224609375	17.1559399566854	0.0023577880859375	1.05133056640625
432	1.0546875	17.1803399566238	0.0023980712890625	1.05438232421875
433	1.05712890625	17.2047399565622	0.00243865966796875	1.05621337890625
434	1.0595703125	17.2291399565006	0.002479248046875	1.0589599609375
435	1.06201171875	17.253539956439	0.00252044677734375	1.06109619140625
436	1.064453125	17.2779399563774	0.0025628662109375	1.063232421875
437	1.06689453125	17.3023399563158	0.00260589599609375	1.0662841796875
438	1.0693359375	17.3267399562542	0.0026495361328125	1.06842041015625
439	1.07177734375	17.3511399561926	0.00269287109375	1.070556640625
440	1.07421875	17.375539956131	0.0027374267578125	1.07330322265625
441	1.07666015625	17.3999399560694	0.0027825927734375	1.07574462890625
442	1.0791015625	17.4243399560078	0.00282806396484375	1.077880859375
443	1.08154296875	17.4487399559462	0.00287506103515625	1.0809326171875
444	1.083984375	17.4731399558846	0.0029205322265625	1.08306884765625
445	1.08642578125	17.497539955823	0.00296844482421875	1.085205078125
446	1.0888671875	17.5219399557614	0.003016357421875	1.087646484375
447	1.09130859375	17.5463399556998	0.00306488037109375	1.09039306640625
448	1.09375	17.5707399556381	0.00311279296875	1.0931396484375
449	1.09619140625	17.5951399555765	0.0031622314453125	1.09466552734375
450	1.0986328125	17.6195399555149	0.003212890625	1.097412109375
451	1.10107421875	17.6439399554533	0.003262939453125	1.10015869140625
452	1.103515625	17.6683399553917	0.0033135986328125	1.102294921875
453	1.10595703125	17.6927399553301	0.0033642578125	1.1053466796875
454	1.1083984375	17.7171399552685	0.0034161376953125	1.107177734375
455	1.11083984375	17.7415399552069	0.00346771240234375	1.1102294921875
456	1.11328125	17.7659399551453	0.0035198974609375	1.112060546875
457	1.11572265625	17.7903399550837	0.00357177734375	1.114501953125
458	1.1181640625	17.8147399550221	0.0036236572265625	1.11663818359375
459	1.12060546875	17.8391399549605	0.00367584228515625	1.11968994140625
460	1.123046875	17.8635399548989	0.00372802734375	1.1212158203125
461	1.12548828125	17.8879399548373	0.00378021240234375	1.12457275390625
462	1.1279296875	17.9123399547757	0.00383148193359375	1.12701416015625
463	1.13037109375	17.9367399547141	0.00388275146484375	1.12945556640625
464	1.1328125	17.9611399546525	0.00393341064453125	1.13189697265625
465	1.13525390625	17.9855399545909	0.0039837646484375	1.134033203125
466	1.1376953125	18.0099399545293	0.0040325927734375	1.13677978515625
467	1.14013671875	18.0343399544677	0.00408050537109375	1.13861083984375
468	1.142578125	18.0587399544061	0.00412750244140625	1.141357421875
469	1.14501953125	18.0831399543445	0.004173583984375	1.1444091796875
470	1.1474609375	18.1075399542829	0.00421875	1.1468505859375
471	1.14990234375	18.1319399542213	0.00426177978515625	1.14898681640625
472	1.15234375	18.1563399541596	0.00430419921875	1.15142822265625
473	1.15478515625	18.180739954098	0.0043450927734375	1.15386962890625
474	1.1572265625	18.2051399540364	0.004384765625	1.15631103515625
475	1.15966796875	18.2295399539748	0.0044232177734375	1.158447265625
476	1.162109375	18.2539399539132	0.00445953369140625	1.16058349609375
477	1.16455078125	18.2783399538516	0.00449554443359375	1.16363525390625
478	1.1669921875	18.30273995379	0.004530029296875	1.16607666015625
479	1.16943359375	18.3271399537284	0.0045635986328125	1.16790771484375
480	1.171875	18.3515399536668	0.00459564208984375	1.1712646484375
481	1.17431640625	18.3759399536052	0.00462677001953125	1.1737060546875
482	1.1767578125	18.4003399535436	0.00465728759765625	1.17584228515625
483	1.17919921875	18.424739953482	0.004686279296875	1.1785888671875
484	1.181640625	18.4491399534204	0.00471466064453125	1.180419921875
485	1.18408203125	18.4735399533588	0.0047418212890625	1.1834716796875
486	1.1865234375	18.4979399532972	0.00476837158203125	1.18499755859375
487	1.18896484375	18.5223399532356	0.00479400634765625	1.187744140625
488	1.19140625	18.546739953174	0.0048193359375	1.18988037109375
489	1.19384765625	18.5711399531124	0.00484344482421875	1.19293212890625
490	1.1962890625	18.5955399530508	0.00486724853515625	1.1944580078125
491	1.19873046875	18.6199399529892	0.00489013671875	1.197509765625
492	1.201171875	18.6443399529276	0.0049127197265625	1.20025634765625
493	1.19873046875	18.668739952866	0.0048895263671875	1.197509765625
494	1.1962890625	18.6931399528044	0.00486541748046875	1.195068359375
495	1.19384765625	18.7175399527428	0.00484100341796875	1.19293212890625
496	1.19140625	18.7419399526812	0.00481597900390625	1.19049072265625
497	1.18896484375	18.7663399526195	0.0047900390625	1.187744140625
498	1.1865234375	18.7907399525579	0.00476348876953125	1.18560791015625
499	1.18408203125	18.8151399524963	0.0047357177734375	1.18255615234375
500	1.181640625	18.8395399524347	0.00470733642578125	1.180419921875
501	1.17919921875	18.8639399523731	0.00467803955078125	1.177978515625
502	1.1767578125	18.8883399523115	0.0046478271484375	1.17584228515625
503	1.17431640625	18.9127399522499	0.0046160888671875	1.173095703125
504	1.171875	18.9371399521883	0.004583740234375	1.170654296875
505	1.16943359375	18.9615399521267	0.0045501708984375	1.16851806640625
506	1.1669921875	18.9859399520651	0.00451568603515625	1.16607666015625
507	1.16455078125	19.0103399520035	0.0044793701171875	1.1639404296875
508	1.162109375	19.0347399519419	0.00444183349609375	1.160888671875
509	1.15966796875	19.0591399518803	0.00440338134765625	1.158447265625
510	1.1572265625	19.0835399518187	0.0043634033203125	1.15631103515625
511	1.15478515625	19.1079399517571	0.00432220458984375	1.15325927734375
512	1.15234375	19.1323399516955	0.00427886962890625	1.15203857421875
513	1.14990234375	19.1567399516339	0.00423492431640625	1.148681640625
514	1.1474609375	19.1811399515723	0.00418914794921875	1.146240234375
515	1.14501953125	19.2055399515107	0.0041424560546875	1.14410400390625
516	1.142578125	19.2299399514491	0.00409393310546875	1.14166259765625
517	1.14013671875	19.2543399513875	0.00404449462890625	1.13922119140625
518	1.1376953125	19.2787399513259	0.003994140625	1.13677978515625
519	1.13525390625	19.3031399512643	0.00394256591796875	1.13433837890625
520	1.1328125	19.3275399512027	0.0038909912109375	1.1322021484375
521	1.13037109375	19.351939951141	0.0038372802734375	1.12945556640625
522	1.1279296875	19.3763399510794	0.00378448486328125	1.126708984375
523	1.12548828125	19.4007399510178	0.00373046875	1.12457275390625
524	1.123046875	19.4251399509562	0.00367706298828125	1.12152099609375
525	1.12060546875	19.4495399508946	0.00362274169921875	1.1187744140625
526	1.1181640625	19.473939950833	0.00356842041015625	1.116943359375
527	1.11572265625	19.4983399507714	0.003514404296875	1.1151123046875
528	1.11328125	19.5227399507098	0.0034600830078125	1.112060546875
529	1.11083984375	19.5471399506482	0.003406982421875	1.1102294921875
530	1.1083984375	19.5715399505866	0.0033526611328125	1.1077880859375
531	1.10595703125	19.595939950525	0.003299560546875	1.104736328125
532	1.103515625	19.6203399504634	0.00324676513671875	1.102294921875
533	1.10107421875	19.6447399504018	0.003194580078125	1.099853515625
534	1.0986328125	19.6691399503402	0.0031427001953125	1.0980224609375
535	1.09619140625	19.6935399502786	0.00309051513671875	1.09527587890625
536	1.09375	19.717939950217	0.0030401611328125	1.0931396484375
537	1.09130859375	19.7423399501554	0.0029888916015625	1.08978271484375
538	1.0888671875	19.7667399500938	0.00293975830078125	1.08795166015625
539	1.08642578125	19.7911399500322	0.00288909912109375	1.085205078125
540	1.083984375	19.8155399499706	0.002840576171875	1.08306884765625
541	1.08154296875	19.839939949909	0.002791748046875	1.0809326171875
542	1.0791015625	19.8643399498474	0.002744140625	1.07818603515625
543	1.07666015625	19.8887399497858	0.00269683837890625	1.07574462890625
544	1.07421875	19.9131399497242	0.0026495361328125	1.07269287109375
545	1.07177734375	19.9375399496626	0.0026043701171875	1.070556640625
546	1.0693359375	19.9619399496009	0.00255828857421875	1.06903076171875
547	1.06689453125	19.9863399495393	0.00251373291015625	1.0662841796875
548	1.064453125	20.0107399494777	0.00246856689453125	1.063232421875
549	1.06201171875	20.0351399494161	0.0024249267578125	1.06109619140625
550	1.0595703125	20.0595399493545	0.002381591796875	1.0589599609375
551	1.05712890625	20.0839399492929	0.0023388671875	1.05560302734375
552	1.0546875	20.1083399492313	0.00229736328125	1.05377197265625
553	1.05224609375	20.1327399491697	0.00225494384765625	1.0516357421875
554	1.0498046875	20.1571399491081	0.0022149658203125	1.048583984375
555	1.04736328125	20.1815399490465	0.002174072265625	1.04644775390625
556	1.044921875	20.2059399489849	0.00213531494140625	1.0443115234375
557	1.04248046875	20.2303399489233	0.0020953369140625	1.04156494140625
558	1.0400390625	20.2547399488617	0.00205657958984375	1.038818359375
559	1.03759765625	20.2791399488001	0.00201904296875	1.036376953125
560	1.03515625	20.3035399487385	0.00198150634765625	1.03424072265625
561	1.03271484375	20.3279399486769	0.0019451904296875	1.03118896484375
562	1.0302734375	20.3523399486153	0.00190826416015625	1.0296630859375
563	1.02783203125	20.3767399485537	0.001873779296875	1.02691650390625
564	1.025390625	20.4011399484921	0.00183807373046875	1.024169921875
565	1.02294921875	20.4255399484305	0.00180511474609375	1.0223388671875
566	1.0205078125	20.4499399483689	0.00177032470703125	1.019287109375
567	1.01806640625	20.4743399483073	0.001737060546875	1.01715087890625
568	1.015625	20.4987399482457	0.00170440673828125	1.01470947265625
569	1.01318359375	20.5231399481841	0.00167236328125	1.0125732421875
570	1.0107421875	20.5475399481224	0.00164154052734375	1.0101318359375
571	1.00830078125	20.5719399480608	0.0016094970703125	1.00738525390625
572	1.005859375	20.5963399479992	0.0015802001953125	1.004638671875
573	1.00341796875	20.6207399479376	0.00154937744140625	1.00250244140625
574	1.0009765625	20.645139947876	0.00152130126953125	1.00006103515625
575	0.99853515625	20.6695399478144	0.0014923095703125	0.997314453125
576	0.99609375	20.6939399477528	0.00146392822265625	0.99517822265625
577	0.99365234375	20.7183399476912	0.00143646240234375	0.9930419921875
578	0.9912109375	20.7427399476296	0.00140899658203125	0.9906005859375
579	0.98876953125	20.767139947568	0.00138336181640625	0.9881591796875
580	0.986328125	20.7915399475064	0.001356201171875	0.9857177734375
581	0.98388671875	20.8159399474448	0.001331787109375	0.98297119140625
582	0.9814453125	20.8403399473832	0.00130584716796875	0.98052978515625
583	0.97900390625	20.8647399473216	0.00128204345703125	0.97808837890625
584	0.9765625	20.88913994726	0.00125732421875	0.97564697265625
585	0.97412109375	20.9135399471984	0.0012335205078125	0.97320556640625
586	0.9716796875	20.9379399471368	0.0012109375	0.9710693359375
587	0.96923828125	20.9623399470752	0.00118743896484375	0.9686279296875
588	0.966796875	20.9867399470136	0.0011663818359375	0.96588134765625
589	0.96435546875	21.011139946952	0.00114349365234375	0.96282958984375
590	0.9619140625	21.0355399468904	0.00112335205078125	0.9613037109375
591	0.95947265625	21.0599399468288	0.00110137939453125	0.9588623046875
592	0.95703125	21.0843399467672	0.00108184814453125	0.95611572265625
593	0.95458984375	21.1087399467056	0.0010614013671875	0.9539794921875
594	0.9521484375	21.133139946644	0.0010418701171875	0.95123291015625
595	0.94970703125	21.1575399465823	0.00102294921875	0.948486328125
596	0.947265625	21.1819399465207	0.00100311279296875	0.94635009765625
597	0.94482421875	21.2063399464591	0.00098602294921875	0.9429931640625
598	0.9423828125	21.2307399463975	0.00096649169921875	0.94146728515625
599	0.93994140625	21.2551399463359	0.0009503173828125	0.93902587890625
600	0.9375	21.2795399462743	0.00093231201171875	0.93658447265625
601	0.93505859375	21.3039399462127	0.00091552734375	0.93414306640625
602	0.9326171875	21.3283399461511	0.00089874267578125	0.93231201171875
603	0.93017578125	21.3527399460895	0.00088165283203125	0.92926025390625
604	0.927734375	21.3771399460279	0.00086669921875	0.9271240234375
605	0.92529296875	21.4015399459663	0.0008502197265625	0.924072265625
606	0.9228515625	21.4259399459047	0.00083587646484375	0.9222412109375
607	0.92041015625	21.4503399458431	0.000819091796875	0.91949462890625
608	0.91796875	21.4747399457815	0.0008056640625	0.91705322265625
609	0.91552734375	21.4991399457199	0.0007904052734375	0.91461181640625
610	0.9130859375	21.5235399456583	0.0007769775390625	0.91278076171875
611	0.91064453125	21.5479399455967	0.00076324462890625	0.9100341796875
612	0.908203125	21.5723399455351	0.0007489013671875	0.90789794921875
613	0.90576171875	21.5967399454735	0.00073638916015625	0.90484619140625
614	0.9033203125	21.6211399454119	0.00072235107421875	0.90240478515625
615	0.90087890625	21.6455399453503	0.00071075439453125	0.9002685546875
616	0.8984375	21.6699399452887	0.000697021484375	0.89752197265625
617	0.89599609375	21.6943399452271	0.00068572998046875	0.894775390625
618	0.8935546875	21.7187399451655	0.00067291259765625	0.8929443359375
619	0.89111328125	21.7431399451038	0.0006610107421875	0.89019775390625
620	0.888671875	21.7675399450422	0.00064971923828125	0.887451171875
621	0.88623046875	21.7919399449806	0.00063751220703125	0.885009765625
622	0.8837890625	21.816339944919	0.00062744140625	0.88287353515625
623	0.88134765625	21.8407399448574	0.00061553955078125	0.88043212890625
624	0.87890625	21.8651399447958	0.0006060791015625	0.8782958984375
625	0.87646484375	21.8895399447342	0.0005938720703125	0.87554931640625
626	0.8740234375	21.9139399446726	0.000584716796875	0.872802734375
627	0.87158203125	21.938339944611	0.00057403564453125	0.87066650390625
628	0.869140625	21.9627399445494	0.00056396484375	0.8685302734375
629	0.86669921875	21.9871399444878	0.0005548095703125	0.86578369140625
630	0.8642578125	22.0115399444262	0.00054412841796875	0.86334228515625
631	0.86181640625	22.0359399443646	0.00053558349609375	0.860595703125
632	0.859375	22.060339944303	0.00052490234375	0.8587646484375
633	0.85693359375	22.0847399442414	0.000517578125	0.85662841796875
634	0.8544921875	22.1091399441798	0.0005072021484375	0.8538818359375
635	0.85205078125	22.1335399441182	0.0004986572265625	0.85113525390625
636	0.849609375	22.1579399440566	0.00048992919921875	0.8489990234375
637	0.84716796875	22.182339943995	0.000481109619140625	0.845947265625
638	0.8447265625	22.2067399439334	0.00047320556640625	0.84381103515625
639	0.84228515625	22.2311399438718	0.000463714599609375	0.84075927734375
640	0.83984375	22.2555399438102	0.00045703125	0.83892822265625
641	0.83740234375	22.2799399437486	0.00044757080078125	0.8367919921875
642	0.8349609375	22.304339943687	0.000441314697265625	0.833740234375
643	0.83251953125	22.3287399436254	0.000432342529296875	0.831298828125
644	0.830078125	22.3531399435637	0.000425262451171875	0.82916259765625
645	0.82763671875	22.3775399435021	0.000417938232421875	0.826416015625
646	0.8251953125	22.4019399434405	0.000410003662109375	0.82427978515625
647	0.82275390625	22.4263399433789	0.000403533935546875	0.82183837890625
648	0.8203125	22.4507399433173	0.000394744873046875	0.82000732421875
649	0.81787109375	22.4751399432557	0.00038916015625	0.8172607421875
650	0.8154296875	22.4995399431941	0.00038092041015625	0.81451416015625
651	0.81298828125	22.5239399431325	0.000375396728515625	0.81207275390625
652	0.810546875	22.5483399430709	0.00036749267578125	0.80963134765625
653	0.80810546875	22.5727399430093	0.0003609619140625	0.80780029296875
654	0.8056640625	22.5971399429477	0.000354705810546875	0.80474853515625
655	0.80322265625	22.6215399428861	0.000347869873046875	0.80230712890625
656	0.80078125	22.6459399428245	0.00034234619140625	0.8001708984375
657	0.79833984375	22.6703399427629	0.000334564208984375	0.79681396484375
658	0.7958984375	22.6947399427013	0.000329925537109375	0.79559326171875
659	0.79345703125	22.7191399426397	0.000322418212890625	0.79315185546875
660	0.791015625	22.7435399425781	0.00031768798828125	0.789794921875
661	0.78857421875	22.7679399425165	0.00031072998046875	0.7879638671875
662	0.7861328125	22.7923399424549	0.000305084228515625	0.78521728515625
663	0.78369140625	22.8167399423933	0.00029949951171875	0.782470703125
664	0.78125	22.8411399423317	0.0002928466796875	0.78033447265625
665	0.77880859375	22.8655399422701	0.000288970947265625	0.77850341796875
666	0.7763671875	22.8899399422085	0.00028173828125	0.77606201171875
667	0.77392578125	22.9143399421469	0.0002779541015625	0.77362060546875
668	0.771484375	22.9387399420852	0.000271575927734375	0.77117919921875
669	0.76904296875	22.9631399420236	0.000266998291015625	0.76812744140625
670	0.7666015625	22.987539941962	0.000261016845703125	0.7659912109375
671	0.76416015625	23.0119399419004	0.0002554931640625	0.76324462890625
672	0.76171875	23.0363399418388	0.000251617431640625	0.76171875
673	0.75927734375	23.0607399417772	0.000245208740234375	0.7586669921875
674	0.7568359375	23.0851399417156	0.00024176025390625	0.75653076171875
675	0.75439453125	23.109539941654	0.00023492431640625	0.7537841796875
676	0.751953125	23.1339399415924	0.000231842041015625	0.75103759765625
677	0.74951171875	23.1583399415308	0.0002255859375	0.74932861328125
678	0.7470703125	23.1827399414692	0.000221771240234375	0.746856689453125
679	0.74462890625	23.2071399414076	0.000216827392578125	0.744384765625
680	0.7421875	23.231539941346	0.000211669921875	0.741943359375
681	0.73974609375	23.2559399412844	0.000208038330078125	0.739501953125
682	0.7373046875	23.2803399412228	0.00020257568359375	0.737060546875
683	0.73486328125	23.3047399411612	0.0002003173828125	0.734649658203125
684	0.732421875	23.3291399410996	0.000193939208984375	0.732208251953125
685	0.72998046875	23.353539941038	0.00019122314453125	0.729766845703125
686	0.7275390625	23.3779399409764	0.000185638427734375	0.727325439453125
687	0.72509765625	23.4023399409148	0.000181976318359375	0.724884033203125
688	0.72265625	23.4267399408532	0.0001785888671875	0.722442626953125
689	0.72021484375	23.4511399407916	0.000173248291015625	0.72003173828125
690	0.7177734375	23.47553994073	0.0001705322265625	0.71759033203125
691	0.71533203125	23.4999399406684	0.00016522216796875	0.715118408203125
692	0.712890625	23.5243399406068	0.00016302490234375	0.712646484375
693	0.71044921875	23.5487399405451	0.000157501220703125	0.710235595703125
694	0.7080078125	23.5731399404835	0.000155120849609375	0.70782470703125
695	0.70556640625	23.5975399404219	0.000150787353515625	0.705352783203125
696	0.703125	23.6219399403603	0.000147064208984375	0.702911376953125
697	0.70068359375	23.6463399402987	0.0001435546875	0.70050048828125
698	0.6982421875	23.6707399402371	0.00013873291015625	0.69805908203125
699	0.69580078125	23.6951399401755	0.00013641357421875	0.69561767578125
700	0.693359375	23.7195399401139	0.000131866455078125	0.693145751953125
701	0.69091796875	23.7439399400523	0.000130126953125	0.690765380859375
702	0.6884765625	23.7683399399907	0.000124908447265625	0.688262939453125
703	0.68603515625	23.7927399399291	0.000122802734375	0.68585205078125
704	0.68359375	23.8171399398675	0.000118560791015625	0.68341064453125
705	0.68115234375	23.8415399398059	0.000115478515625	0.680999755859375
706	0.6787109375	23.8659399397443	0.000112548828125	0.67852783203125
707	0.67626953125	23.8903399396827	0.000107757568359375	0.67608642578125
708	0.673828125	23.9147399396211	0.000106719970703125	0.6737060546875
709	0.67138671875	23.9391399395595	0.00010205078125	0.671234130859375
710	0.6689453125	23.9635399394979	0.000100738525390625	0.668792724609375
711	0.66650390625	23.9879399394363	9.6160888671875E-05	0.66632080078125
712	0.6640625	24.0123399393747	9.3963623046875E-05	0.6639404296875
713	0.66162109375	24.0367399393131	9.08203125E-05	0.6614990234375
714	0.6591796875	24.0611399392515	8.7890625E-05	0.6590576171875
715	0.65673828125	24.0855399391899	8.538818359375E-05	0.656646728515625
716	0.654296875	24.1099399391283	8.1146240234375E-05	0.6539306640625
717	0.65185546875	24.1343399390666	8.02001953125E-05	0.651611328125
718	0.6494140625	24.158739939005	7.611083984375E-05	0.649169921875
719	0.64697265625	24.1831399389434	7.5286865234375E-05	0.64678955078125
720	0.64453125	24.2075399388818	7.0831298828125E-05	0.644256591796875
721	0.64208984375	24.2319399388202	6.9000244140625E-05	0.641845703125
722	0.6396484375	24.2563399387586	6.6192626953125E-05	0.639404296875
723	0.63720703125	24.280739938697	6.3323974609375E-05	0.63702392578125
724	0.634765625	24.3051399386354	6.1553955078125E-05	0.634552001953125
725	0.63232421875	24.3295399385738	5.7220458984375E-05	0.63214111328125
726	0.6298828125	24.3539399385122	5.6915283203125E-05	0.62969970703125
727	0.62744140625	24.3783399384506	5.3009033203125E-05	0.62725830078125
728	0.625	24.402739938389	5.2276611328125E-05	0.624755859375
729	0.62255859375	24.4271399383274	4.8370361328125E-05	0.622406005859375
730	0.6201171875	24.4515399382658	4.68231201171875E-05	0.61993408203125
731	0.61767578125	24.4759399382042	4.46258544921875E-05	0.617462158203125
732	0.615234375	24.5003399381426	4.1656494140625E-05	0.61505126953125
733	0.61279296875	24.524739938081	4.04449462890625E-05	0.612640380859375
734	0.6103515625	24.5491399380194	3.66546630859375E-05	0.610137939453125
735	0.60791015625	24.5735399379578	3.6334228515625E-05	0.60772705078125
736	0.60546875	24.5979399378962	3.2464599609375E-05	0.605316162109375
737	0.60302734375	24.6223399378346	3.19000244140625E-05	0.6029052734375
738	0.6005859375	24.646739937773	2.82958984375E-05	0.6004638671875
739	0.59814453125	24.6711399377114	2.64373779296875E-05	0.598052978515625
740	0.595703125	24.6955399376498	2.515869140625E-05	0.5955810546875
741	0.59326171875	24.7199399375882	2.22381591796875E-05	0.593170166015625
742	0.5908203125	24.7443399375265	2.18658447265625E-05	0.590728759765625
743	0.58837890625	24.7687399374649	1.83929443359375E-05	0.58819580078125
744	0.5859375	24.7931399374033	1.80023193359375E-05	0.5858154296875
745	0.58349609375	24.8175399373417	1.46759033203125E-05	0.583404541015625
746	0.5810546875	24.8419399372801	1.42303466796875E-05	0.5809326171875
747	0.57861328125	24.8663399372185	1.15753173828125E-05	0.5784912109375
748	0.576171875	24.8907399371569	9.7900390625E-06	0.57611083984375
749	0.57373046875	24.9151399370953	8.6639404296875E-06	0.5736083984375
750	0.5712890625	24.9395399370337	5.60302734375E-06	0.571258544921875
751	0.56884765625	24.9639399369721	5.6640625E-06	0.568817138671875
752	0.56640625	24.9883399369105	1.92047119140625E-06	0.566314697265625
753	0.56396484375	25.0127399368489	2.2833251953125E-06	0.563873291015625
754	0.5615234375	25.0371399367873	-8.2183837890625E-07	0.56146240234375
755	0.55908203125	25.0615399367257	-1.3360595703125E-06	0.55908203125
756	0.556640625	25.0859399366641	-3.387451171875E-06	0.55657958984375
757	0.55419921875	25.1103399366025	-5.230712890625E-06	0.55413818359375
758	0.5517578125	25.1347399365409	-6.0455322265625E-06	0.551849365234375
759	0.54931640625	25.1591399364793	-8.7127685546875E-06	0.54931640625
760	0.546875	25.1835399364177	-8.5235595703125E-06	0.546905517578125
761	0.54443359375	25.2079399363561	-1.22283935546875E-05	0.54449462890625
762	0.5419921875	25.2323399362945	-1.16546630859375E-05	0.542083740234375
763	0.53955078125	25.2567399362329	-1.4111328125E-05	0.5396728515625
764	0.537109375	25.2811399361713	-1.48223876953125E-05	0.53729248046875
765	0.53466796875	25.3055399361097	-1.65740966796875E-05	0.53485107421875
766	0.5322265625	25.329939936048	-1.84051513671875E-05	0.532379150390625
767	0.52978515625	25.3543399359864	-1.85760498046875E-05	0.529998779296875
768	0.52734375	25.3787399359248	-2.13287353515625E-05	0.527618408203125
769	0.52490234375	25.4031399358632	-2.03582763671875E-05	0.525146484375
770	0.5224609375	25.4275399358016	-2.3980712890625E-05	0.522674560546875
771	0.52001953125	25.45193993574	-2.34100341796875E-05	0.520294189453125
772	0.517578125	25.4763399356784	-2.56927490234375E-05	0.517822265625
773	0.51513671875	25.5007399356168	-2.657470703125E-05	0.5155029296875
774	0.5126953125	25.5251399355552	-2.7239990234375E-05	0.51300048828125
775	0.51025390625	25.5495399354936	-2.9486083984375E-05	0.510650634765625
776	0.5078125	25.573939935432	-2.91290283203125E-05	0.508209228515625
777	0.50537109375	25.5983399353704	-3.18267822265625E-05	0.5057373046875
778	0.5029296875	25.6227399353088	-3.0755615234375E-05	0.50286865234375
779	0.50048828125	25.6471399352472	-3.3599853515625E-05	0.500457763671875
780	0.498046875	25.6715399351856	-3.341064453125E-05	0.49810791015625
781	0.49560546875	25.695939935124	-3.50341796875E-05	0.49560546875
782	0.4931640625	25.7203399350624	-3.60870361328125E-05	0.4931640625
783	0.49072265625	25.7447399350008	-3.64990234375E-05	0.49072265625
784	0.48828125	25.7691399349392	-3.8677978515625E-05	0.488311767578125
785	0.48583984375	25.7935399348776	-3.79180908203125E-05	0.48583984375
786	0.4833984375	25.817939934816	-4.06768798828125E-05	0.483428955078125
787	0.48095703125	25.8423399347544	-3.94805908203125E-05	0.48095703125
788	0.478515625	25.8667399346928	-4.21051025390625E-05	0.478515625
789	0.47607421875	25.8911399346312	-4.1864013671875E-05	0.47613525390625
790	0.4736328125	25.9155399345696	-4.3255615234375E-05	0.473663330078125
791	0.47119140625	25.9399399345079	-4.3994140625E-05	0.47119140625
792	0.46875	25.9643399344463	-4.432373046875E-05	0.468841552734375
793	0.46630859375	25.9887399343847	-4.67041015625E-05	0.46630859375
794	0.4638671875	26.0131399343231	-4.57550048828125E-05	0.46392822265625
795	0.46142578125	26.0375399342615	-4.81903076171875E-05	0.461456298828125
796	0.458984375	26.0619399341999	-4.693603515625E-05	0.45904541015625
797	0.45654296875	26.0863399341383	-4.925537109375E-05	0.456573486328125
798	0.4541015625	26.1107399340767	-4.913330078125E-05	0.454071044921875
799	0.45166015625	26.1351399340151	-5.0140380859375E-05	0.451690673828125
800	0.44921875	26.1595399339535	-5.108642578125E-05	0.449188232421875
801	0.44677734375	26.1839399338919	-5.0933837890625E-05	0.44671630859375
802	0.4443359375	26.2083399338303	-5.328369140625E-05	0.444305419921875
803	0.44189453125	26.2327399337687	-5.1788330078125E-05	0.44189453125
804	0.439453125	26.2571399337071	-5.4229736328125E-05	0.439422607421875
805	0.43701171875	26.2815399336455	-5.2886962890625E-05	0.436981201171875
806	0.4345703125	26.3059399335839	-5.50537109375E-05	0.4345703125
807	0.43212890625	26.3303399335223	-5.499267578125E-05	0.432159423828125
808	0.4296875	26.3547399334607	-5.548095703125E-05	0.429656982421875
809	0.42724609375	26.3791399333991	-5.65185546875E-05	0.42724609375
810	0.4248046875	26.4035399333375	-5.596923828125E-05	0.4248046875
811	0.42236328125	26.4279399332759	-5.84716796875E-05	0.42236328125
812	0.419921875	26.4523399332143	-5.6884765625E-05	0.419891357421875
813	0.41748046875	26.4767399331527	-5.889892578125E-05	0.41748046875
814	0.4150390625	26.5011399330911	-5.7861328125E-05	0.415069580078125
815	0.41259765625	26.5255399330294	-5.9783935546875E-05	0.412628173828125
816	0.41015625	26.5499399329678	-5.9844970703125E-05	0.41015625
817	0.40771484375	26.5743399329062	-5.9814453125E-05	0.407745361328125
818	0.4052734375	26.5987399328446	-6.1248779296875E-05	0.4052734375
819	0.40283203125	26.623139932783	-6.011962890625E-05	0.402862548828125
820	0.400390625	26.6475399327214	-6.2744140625E-05	0.400421142578125
821	0.39794921875	26.6719399326598	-6.0943603515625E-05	0.398040771484375
822	0.3955078125	26.6963399325982	-6.3018798828125E-05	0.395538330078125
823	0.39306640625	26.7207399325366	-6.219482421875E-05	0.393096923828125
824	0.390625	26.745139932475	-6.3690185546875E-05	0.390655517578125
825	0.38818359375	26.7695399324134	-6.4178466796875E-05	0.388214111328125
826	0.3857421875	26.7939399323518	-6.3995361328125E-05	0.385772705078125
827	0.38330078125	26.8183399322902	-6.5277099609375E-05	0.38330078125
828	0.380859375	26.8427399322286	-6.390380859375E-05	0.380828857421875
829	0.37841796875	26.867139932167	-6.6375732421875E-05	0.378448486328125
830	0.3759765625	26.8915399321054	-6.4727783203125E-05	0.3759765625
831	0.37353515625	26.9159399320438	-6.6619873046875E-05	0.373565673828125
832	0.37109375	26.9403399319822	-6.5765380859375E-05	0.371185302734375
833	0.36865234375	26.9647399319206	-6.6802978515625E-05	0.368743896484375
834	0.3662109375	26.989139931859	-6.73828125E-05	0.3662109375
835	0.36376953125	27.0135399317974	-6.683349609375E-05	0.363861083984375
836	0.361328125	27.0379399317358	-6.8328857421875E-05	0.361358642578125
837	0.35888671875	27.0623399316742	-6.6925048828125E-05	0.358978271484375
838	0.3564453125	27.0867399316126	-6.915283203125E-05	0.35650634765625
839	0.35400390625	27.111139931551	-6.7535400390625E-05	0.35400390625
840	0.3515625	27.1355399314893	-6.92138671875E-05	0.35162353515625
841	0.34912109375	27.1599399314277	-6.866455078125E-05	0.34918212890625
842	0.3466796875	27.1843399313661	-6.939697265625E-05	0.34674072265625
843	0.34423828125	27.2087399313045	-7.01904296875E-05	0.344268798828125
844	0.341796875	27.2331399312429	-6.927490234375E-05	0.341888427734375
845	0.33935546875	27.2575399311813	-7.06787109375E-05	0.33941650390625
846	0.3369140625	27.2819399311197	-6.9061279296875E-05	0.337005615234375
847	0.33447265625	27.3063399310581	-7.1441650390625E-05	0.33447265625
848	0.33203125	27.3307399309965	-6.9976806640625E-05	0.33209228515625
849	0.32958984375	27.3551399309349	-7.11669921875E-05	0.32965087890625
850	0.3271484375	27.3795399308733	-7.073974609375E-05	0.327178955078125
851	0.32470703125	27.4039399308117	-7.1044921875E-05	0.32476806640625
852	0.322265625	27.4283399307501	-7.2113037109375E-05	0.32232666015625
853	0.31982421875	27.4527399306885	-7.1014404296875E-05	0.31988525390625
854	0.3173828125	27.4771399306269	-7.2845458984375E-05	0.31744384765625
855	0.31494140625	27.5015399305653	-7.073974609375E-05	0.314971923828125
856	0.3125	27.5259399305037	-7.2784423828125E-05	0.312530517578125
857	0.31005859375	27.5503399304421	-7.1441650390625E-05	0.31011962890625
858	0.3076171875	27.5747399303805	-7.257080078125E-05	0.3076171875
859	0.30517578125	27.5991399303189	-7.257080078125E-05	0.30523681640625
860	0.302734375	27.6235399302573	-7.2296142578125E-05	0.302764892578125
861	0.30029296875	27.6479399301957	-7.3822021484375E-05	0.30035400390625
862	0.2978515625	27.6723399301341	-7.232666015625E-05	0.29791259765625
863	0.29541015625	27.6967399300725	-7.40966796875E-05	0.29547119140625
864	0.29296875	27.7211399300108	-7.2113037109375E-05	0.29302978515625
865	0.29052734375	27.7455399299492	-7.4371337890625E-05	0.29052734375
866	0.2880859375	27.7699399298876	-7.3394775390625E-05	0.28814697265625
867	0.28564453125	27.794339929826	-7.4249267578125E-05	0.285797119140625
868	0.283203125	27.8187399297644	-7.4493408203125E-05	0.283233642578125
869	0.28076171875	27.8431399297028	-7.415771484375E-05	0.280792236328125
870	0.2783203125	27.8675399296412	-7.5592041015625E-05	0.278411865234375
871	0.27587890625	27.8919399295796	-7.403564453125E-05	0.27587890625
872	0.2734375	27.916339929518	-7.6080322265625E-05	0.273468017578125
873	0.27099609375	27.9407399294564	-7.415771484375E-05	0.271087646484375
874	0.2685546875	27.9651399293948	-7.6171875E-05	0.26861572265625
875	0.26611328125	27.9895399293332	-7.5531005859375E-05	0.266204833984375
876	0.263671875	28.0139399292716	-7.5927734375E-05	0.263671875
877	0.26123046875	28.03833992921	-7.6202392578125E-05	0.2613525390625
878	0.2587890625	28.0627399291484	-7.5439453125E-05	0.2589111328125
879	0.25634765625	28.0871399290868	-7.745361328125E-05	0.256439208984375
880	0.25390625	28.1115399290252	-7.562255859375E-05	0.253997802734375
881	0.25146484375	28.1359399289636	-7.7545166015625E-05	0.251495361328125
882	0.2490234375	28.160339928902	-7.5714111328125E-05	0.249053955078125
883	0.24658203125	28.1847399288404	-7.72705078125E-05	0.24664306640625
884	0.244140625	28.2091399287788	-7.6812744140625E-05	0.244232177734375
885	0.24169921875	28.2335399287172	-7.7178955078125E-05	0.241729736328125
886	0.2392578125	28.2579399286556	-7.7789306640625E-05	0.239349365234375
887	0.23681640625	28.282339928594	-7.6934814453125E-05	0.236907958984375
888	0.234375	28.3067399285324	-7.8765869140625E-05	0.2344970703125
889	0.23193359375	28.3311399284707	-7.6812744140625E-05	0.2320556640625
890	0.2294921875	28.3555399284091	-7.855224609375E-05	0.22955322265625
891	0.22705078125	28.3799399283475	-7.7117919921875E-05	0.227142333984375
892	0.224609375	28.4043399282859	-7.855224609375E-05	0.224639892578125
893	0.22216796875	28.4287399282243	-7.84912109375E-05	0.222320556640625
894	0.2197265625	28.4531399281627	-7.82470703125E-05	0.219757080078125
895	0.21728515625	28.4775399281011	-7.92236328125E-05	0.217376708984375
896	0.21484375	28.5019399280395	-7.769775390625E-05	0.214935302734375
897	0.21240234375	28.5263399279779	-7.989501953125E-05	0.21246337890625
898	0.2099609375	28.5507399279163	-7.794189453125E-05	0.210052490234375
899	0.20751953125	28.5751399278547	-7.9559326171875E-05	0.207672119140625
900	0.205078125	28.5995399277931	-7.8277587890625E-05	0.205169677734375
901	0.20263671875	28.6239399277315	-7.928466796875E-05	0.2027587890625
902	0.2001953125	28.6483399276699	-7.9498291015625E-05	0.2003173828125
903	0.19775390625	28.6727399276083	-7.89794921875E-05	0.19781494140625
904	0.1953125	28.6971399275467	-8.0230712890625E-05	0.195404052734375
905	0.19287109375	28.7215399274851	-7.867431640625E-05	0.19293212890625
906	0.1904296875	28.7459399274235	-8.0963134765625E-05	0.190521240234375
907	0.18798828125	28.7703399273619	-7.89794921875E-05	0.188079833984375
908	0.185546875	28.7947399273003	-8.04443359375E-05	0.185638427734375
909	0.18310546875	28.8191399272387	-7.94677734375E-05	0.1832275390625
910	0.1806640625	28.8435399271771	-8.02001953125E-05	0.1807861328125
911	0.17822265625	28.8679399271155	-8.0718994140625E-05	0.178314208984375
912	0.17578125	28.8923399270539	-7.9833984375E-05	0.1759033203125
913	0.17333984375	28.9167399269922	-8.1268310546875E-05	0.1734619140625
914	0.1708984375	28.9411399269306	-7.9437255859375E-05	0.1710205078125
915	0.16845703125	28.965539926869	-8.1756591796875E-05	0.1685791015625
916	0.166015625	28.9899399268074	-7.989501953125E-05	0.1661376953125
917	0.16357421875	29.0143399267458	-8.1207275390625E-05	0.163726806640625
918	0.1611328125	29.0387399266842	-8.056640625E-05	0.1612548828125
919	0.15869140625	29.0631399266226	-8.1024169921875E-05	0.1588134765625
920	0.15625	29.087539926561	-8.1878662109375E-05	0.156341552734375
921	0.15380859375	29.1119399264994	-8.0535888671875E-05	0.1539306640625
922	0.1513671875	29.1363399264378	-8.2305908203125E-05	0.1514892578125
923	0.14892578125	29.1607399263762	-8.0230712890625E-05	0.149078369140625
924	0.146484375	29.1851399263146	-8.245849609375E-05	0.146514892578125
925	0.14404296875	29.209539926253	-8.09326171875E-05	0.144195556640625
926	0.1416015625	29.2339399261914	-8.1939697265625E-05	0.141754150390625
927	0.13916015625	29.2583399261298	-8.16650390625E-05	0.1392822265625
928	0.13671875	29.2827399260682	-8.1634521484375E-05	0.13690185546875
929	0.13427734375	29.3071399260066	-8.2733154296875E-05	0.134429931640625
930	0.1318359375	29.331539925945	-8.148193359375E-05	0.1319580078125
931	0.12939453125	29.3559399258834	-8.3160400390625E-05	0.129547119140625
932	0.126953125	29.3803399258218	-8.111572265625E-05	0.127105712890625
933	0.12451171875	29.4047399257602	-8.3404541015625E-05	0.1246337890625
934	0.1220703125	29.4291399256986	-8.209228515625E-05	0.1221923828125
935	0.11962890625	29.453539925637	-8.28857421875E-05	0.1197509765625
936	0.1171875	29.4779399255754	-8.2916259765625E-05	0.117340087890625
937	0.11474609375	29.5023399255138	-8.251953125E-05	0.1148681640625
938	0.1123046875	29.5267399254521	-8.3892822265625E-05	0.112457275390625
939	0.10986328125	29.5511399253905	-8.2061767578125E-05	0.1099853515625
940	0.107421875	29.5755399253289	-8.3892822265625E-05	0.107574462890625
941	0.10498046875	29.5999399252673	-8.19091796875E-05	0.105133056640625
942	0.1025390625	29.6243399252057	-8.3953857421875E-05	0.10272216796875
943	0.10009765625	29.6487399251441	-8.3038330078125E-05	0.1002197265625
944	0.09765625	29.6731399250825	-8.3404541015625E-05	0.097747802734375
945	0.09521484375	29.6975399250209	-8.3648681640625E-05	0.095367431640625
946	0.0927734375	29.7219399249593	-8.294677734375E-05	0.092926025390625
947	0.09033203125	29.7463399248977	-8.4716796875E-05	0.090484619140625
948	0.087890625	29.7707399248361	-8.2916259765625E-05	0.0880126953125
949	0.08544921875	29.7951399247745	-8.4869384765625E-05	0.0855712890625
950	0.0830078125	29.8195399247129	-8.2855224609375E-05	0.083160400390625
951	0.08056640625	29.8439399246513	-8.4503173828125E-05	0.08074951171875
952	0.078125	29.8683399245897	-8.392333984375E-05	0.07830810546875
953	0.07568359375	29.8927399245281	-8.404541015625E-05	0.0758056640625
954	0.0732421875	29.9171399244665	-8.4716796875E-05	0.073394775390625
955	0.07080078125	29.9415399244049	-8.367919921875E-05	0.070953369140625
956	0.068359375	29.9659399243433	-8.5601806640625E-05	0.06854248046875
957	0.06591796875	29.9903399242817	-8.3465576171875E-05	0.066009521484375
958	0.0634765625	30.0147399242201	-8.5296630859375E-05	0.06365966796875
959	0.06103515625	30.0391399241585	-8.3648681640625E-05	0.0611572265625
960	0.05859375	30.0635399240969	-8.5113525390625E-05	0.058746337890625
961	0.05615234375	30.0879399240353	-8.4869384765625E-05	0.056304931640625
962	0.0537109375	30.1123399239737	-8.45947265625E-05	0.0538330078125
963	0.05126953125	30.136739923912	-8.544921875E-05	0.05145263671875
964	0.048828125	30.1611399238504	-8.4075927734375E-05	0.0489715576171875
965	0.04638671875	30.1855399237888	-8.624267578125E-05	0.046539306640625
966	0.0439453125	30.2099399237272	-8.4259033203125E-05	0.044110107421875
967	0.04150390625	30.2343399236656	-8.6029052734375E-05	0.0416595458984375
968	0.0390625	30.258739923604	-8.465576171875E-05	0.0392181396484375
969	0.03662109375	30.2831399235424	-8.5723876953125E-05	0.0367828369140625
970	0.0341796875	30.3075399234808	-8.5845947265625E-05	0.0343231201171875
971	0.03173828125	30.3319399234192	-8.5235595703125E-05	0.0318939208984375
972	0.029296875	30.3563399233576	-8.6395263671875E-05	0.029461669921875
973	0.02685546875	30.380739923296	-8.4747314453125E-05	0.027020263671875
974	0.0244140625	30.4051399232344	-8.6944580078125E-05	0.0245819091796875
975	0.02197265625	30.4295399231728	-8.489990234375E-05	0.02213134765625
976	0.01953125	30.4539399231112	-8.6517333984375E-05	0.0197174072265625
977	0.01708984375	30.4783399230496	-8.5479736328125E-05	0.0172607421875
978	0.0146484375	30.502739922988	-8.6212158203125E-05	0.0148223876953125
979	0.01220703125	30.5271399229264	-8.6639404296875E-05	0.012359619140625
980	0.009765625	30.5515399228648	-8.5662841796875E-05	0.00992431640624999
981	0.00732421875	30.5759399228032	-8.70361328125E-05	0.0074951171875
982	0.0048828125	30.6003399227416	-8.5174560546875E-05	0.005047607421875
983	0.00244140625	30.62473992268	-8.746337890625E-05	0.00260009765624999
984	0	30.6491399226184	-8.563232421875E-05	0.000149536132812503
985	0.00244140625	30.6735399225568	-8.67919921875E-05	0.00260314941406251
986	0.0048828125	30.6979399224952	-8.5906982421875E-05	0.00504455566406251
