Index	Time (s)	WE(1).Potential (V)	Corrected time (s)	dWE(1).Potential/dt (V/s)	OCP value (V)
1	31.6998269199656	0.555419921875	0	0	0.55931240904565
2	31.7998269197132	0.55572509765625	0.0999999997475243	0.00305174617096782	
3	31.8998269194607	0.55633544921875	0.199999999495049	0.00762936566025019	
4	31.9998269192082	0.55633544921875	0.299999999242573	-0.00610349234193563	
5	32.0998269189557	0.5572509765625	0.399999998990097	0.0188191011548042	
6	32.1998269187033	0.557861328125	0.499999998737621	0.00050862436182797	
7	32.2998269184508	0.557861328125	0.599999998485146	-0.00406899489462376	
8	32.3998269181983	0.55816650390625	0.69999999823267	0.00762936566025019	
9	32.4998269179458	0.55877685546875	0.799999997980194	0.00762936566025019	
10	32.5998269176933	0.55938720703125	0.899999997727718	0.0050862436182797	
11	32.6998269174409	0.5596923828125	0.999999997475243	0.00050862436182797	
12	32.7998269171884	0.55999755859375	1.09999999722277	0.00406899489462376	
13	32.8998269169359	0.55999755859375	1.19999999697029	-0.00254312180913985	
14	32.9998269166834	0.56060791015625	1.29999999671782	0.0122069846838713	
15	33.099826916431	0.5609130859375	1.39999999646534	-0.00152587308548391	
16	33.1998269161785	0.56060791015625	1.49999999621286	-0.00712074106559157	
17	33.299826915926	0.56121826171875	1.59999999596039	0.0157673545181751	
18	33.3998269156735	0.56121826171875	1.69999999570791	-0.00813798978924751	
19	33.4998269154211	0.56121826171875	1.79999999545544	0.00203449744731188	
20	33.5998269151686	0.5615234375	1.89999999520296	0.00559486821293831	
21	33.6998269149161	0.5615234375	1.99999999495049	-0.00356037053279579	
22	33.7998269146636	0.5615234375	2.09999999469801	0.00101724872365594	
23	33.8998269144112	0.5615234375	2.19999999444553	0	
24	33.9998269141587	0.56182861328125	2.29999999419306	0.00559486821293831	
25	34.0998269139062	0.5621337890625	2.39999999394058	0.00203449744731188	
26	34.1998269136537	0.56243896484375	2.49999999368811	0.00305174617096782	
27	34.2998269134013	0.56243896484375	2.59999999343563	-0.00254312180913985	
28	34.3998269131488	0.56182861328125	2.69999999318316	-0.0101724872365594	
29	34.4998269128963	0.56121826171875	2.79999999293068	-0.00406899489462376	
30	34.5998269126438	0.5615234375	2.8999999926782	0.0106811113655567	
31	34.6998269123914	0.5621337890625	2.99999999242573	0.00559486821293831	
32	34.7998269121389	0.5615234375	3.09999999217325	-0.0172932278364897	
33	34.8998269118864	0.56182861328125	3.19999999192078	0.0147501062601805	
34	34.9998269116339	0.56182861328125	3.2999999916683	-0.00559486821293831	
35	35.0998269113815	0.56182861328125	3.39999999141583	0.00101724872365594	
36	35.199826911129	0.56182861328125	3.49999999116335	0	
37	35.2998269108765	0.5621337890625	3.59999999091087	0.00559486821293831	
38	35.399826910624	0.56243896484375	3.6999999906584	0.00203449744731188	
39	35.4998269103716	0.56243896484375	3.79999999040592	-0.00254312180913985	
40	35.5998269101191	0.562744140625	3.89999999015345	0.00661211693659425	
41	35.6998269098666	0.5621337890625	3.99999998990097	-0.0147501062601805	
42	35.7998269096141	0.56243896484375	4.0999999896485	0.0137328580021858	
43	35.8998269093616	0.56182861328125	4.19999998939602	-0.0167846046388149	
44	35.9998269091092	0.5621337890625	4.29999998914354	0.0137328580021858	
45	36.0998269088567	0.5621337890625	4.39999998889107	-0.00559486821293831	
46	36.1998269086042	0.56182861328125	4.49999998863859	-0.00457761948928237	
47	36.2998269083517	0.5621337890625	4.59999998838612	0.00915523897856474	
48	36.3998269080993	0.562744140625	4.69999998813364	0.00661211693659425	
49	36.4998269078468	0.562744140625	4.79999998788116	-0.00610349234193563	
50	36.5998269075943	0.56304931640625	4.89999998762869	0.00762936566025019	
51	36.6998269073418	0.56304931640625	4.99999998737621	-0.00356037053279579	
52	36.7998269070894	0.56304931640625	5.09999998712374	0.00101724872365594	
53	36.8998269068369	0.5633544921875	5.19999998687126	0.00559486821293831	
54	36.9998269065844	0.5633544921875	5.29999998661879	-0.00356037053279579	
55	37.0998269063319	0.56304931640625	5.39999998636631	-0.00457761948928237	
56	37.1998269060795	0.5633544921875	5.49999998611383	0.00915523897856474	
57	37.299826905827	0.56365966796875	5.59999998586136	0.00101724872365594	
58	37.3998269055745	0.56396484375	5.69999998560888	0.00305174617096782	
59	37.499826905322	0.56427001953125	5.79999998535641	0.00305174617096782	
60	37.5998269050696	0.5645751953125	5.89999998510393	0.00305174617096782	
61	37.6998269048171	0.56427001953125	5.99999998485146	-0.00813798978924751	
62	37.7998269045646	0.56427001953125	6.09999998459898	0.00457761948928237	
63	37.8998269043121	0.5645751953125	6.1999999843465	0.00457761948928237	
64	37.9998269040597	0.56488037109375	6.29999998409403	0.00203449744731188	
65	38.0998269038072	0.56488037109375	6.39999998384155	-0.00254312180913985	
66	38.1998269035547	0.56488037109375	6.49999998358908	0.00101724872365594	
67	38.2998269033022	0.565185546875	6.5999999833366	0.00559486821293831	
68	38.3998269030498	0.56549072265625	6.69999998308413	0.00203449744731188	
69	38.4998269027973	0.56549072265625	6.79999998283165	-0.00254312180913985	
70	38.5998269025448	0.5657958984375	6.89999998257917	0.00661211693659425	
71	38.6998269022923	0.565185546875	6.9999999823267	-0.0147501062601805	
72	38.7998269020399	0.56549072265625	7.09999998207422	0.0137328580021858	
73	38.8998269017874	0.56549072265625	7.19999998182175	-0.00559486821293831	
74	38.9998269015349	0.56549072265625	7.29999998156927	0.00101724872365594	
75	39.0998269012824	0.5657958984375	7.3999999813168	0.00559486821293831	
76	39.19982690103	0.5657958984375	7.49999998106432	-0.00356037053279579	
77	39.2998269007775	0.5657958984375	7.59999998081184	0.00101724872365594	
78	39.399826900525	0.56640625	7.69999998055937	0.0111897364258766	
79	39.4998269002725	0.56610107421875	7.79999998030689	-0.0127156088128686	
80	39.59982690002	0.56671142578125	7.89999998005442	0.0167846046388149	
81	39.6998268997676	0.5657958984375	7.99999997980194	-0.0249225944280624	
82	39.7998268995151	0.56610107421875	8.09999997954947	0.0183104779571295	
83	39.8998268992626	0.56488037109375	8.19999997929699	-0.0289915893226862	
84	39.9998268990101	0.56549072265625	8.29999997904451	0.026448467746377	
85	40.0998268987577	0.5657958984375	8.39999997879204	-0.00559486821293831	
86	40.1998268985052	0.56549072265625	8.49999997853956	-0.00712074106559157	
87	40.2998268982527	0.56549072265625	8.59999997828709	0.00457761948928237	
88	40.3998268980002	0.56488037109375	8.69999997803461	-0.0122069846838713	
89	40.4998268977478	0.565185546875	8.79999997778214	0.0127156088128686	
90	40.5998268974953	0.565185546875	8.89999997752966	-0.00559486821293831	
91	40.6998268972428	0.56549072265625	8.99999997727718	0.00661211693659425	
92	40.7998268969903	0.56549072265625	9.09999997702471	-0.00356037053279579	
93	40.8998268967379	0.56549072265625	9.19999997677223	0.00101724872365594	
94	40.9998268964854	0.5657958984375	9.29999997651976	0.00559486821293831	
95	41.0998268962329	0.56549072265625	9.39999997626728	-0.00915523897856474	
96	41.1998268959804	0.56549072265625	9.49999997601481	0.00457761948928237	
97	41.299826895728	0.565185546875	9.59999997576233	-0.00661211693659425	
98	41.3998268954755	0.56488037109375	9.69999997550985	-0.00203449744731188	
99	41.499826895223	0.56610107421875	9.79999997525738	0.0249225944280624	
100	41.5998268949705	0.56610107421875	9.8999999750049	-0.0152587313205004	
101	41.6998268947181	0.5657958984375	9.99999997475243	-0.00152587308548391	
102	41.7998268944656	0.565185546875	10.0999999745	-0.00762936566025019	
103	41.8998268942131	0.56488037109375	10.1999999742475	0.00050862436182797	
104	41.9998268939606	0.56488037109375	10.299999973995	0.00152587308548391	
105	42.0998268937082	0.565185546875	10.3999999737425	0.00457761948928237	
106	42.1998268934557	0.56488037109375	10.49999997349	-0.00915523897856474	
107	42.2998268932032	0.56549072265625	10.5999999732376	0.0157673545181751	
108	42.3998268929507	0.565185546875	10.6999999729851	-0.0137328580021858	
109	42.4998268926983	0.565185546875	10.7999999727326	0.00559486821293831	
110	42.5998268924458	0.565185546875	10.8999999724801	-0.00101724872365594	
111	42.6998268921933	0.565185546875	10.9999999722277	0	
112	42.7998268919408	0.56549072265625	11.0999999719752	0.00559486821293831	
113	42.8998268916883	0.565185546875	11.1999999717227	-0.00915523897856474	
114	42.9998268914359	0.56549072265625	11.2999999714702	0.0101724872365594	
115	43.0998268911834	0.56488037109375	11.3999999712178	-0.0157673545181751	
116	43.1998268909309	0.56549072265625	11.4999999709653	0.0193277262151241	
117	43.2998268906784	0.56549072265625	11.5999999707128	-0.00915523897856474	
118	43.399826890426	0.565185546875	11.6999999704603	-0.00356037053279579	
119	43.4998268901735	0.565185546875	11.7999999702079	0.00356037053279579	
120	43.599826889921	0.56488037109375	11.8999999699554	-0.00661211693659425	
121	43.6998268896685	0.56488037109375	11.9999999697029	0.00356037053279579	
122	43.7998268894161	0.5645751953125	12.0999999694504	-0.00661211693659425	
123	43.8998268891636	0.56488037109375	12.199999969198	0.00915523897856474	
124	43.9998268889111	0.5645751953125	12.2999999689455	-0.0101724872365594	
125	44.0998268886586	0.56427001953125	12.399999968693	-0.00101724872365594	
126	44.1998268884062	0.5645751953125	12.4999999684405	0.00813798978924751	
127	44.2998268881537	0.56427001953125	12.5999999681881	-0.0101724872365594	
128	44.3998268879012	0.5645751953125	12.6999999679356	0.0101724872365594	
129	44.4998268876487	0.5645751953125	12.7999999676831	-0.00457761948928237	
130	44.5998268873963	0.56488037109375	12.8999999674306	0.00661211693659425	
131	44.6998268871438	0.5645751953125	12.9999999671782	-0.00915523897856474	
132	44.7998268868913	0.56396484375	13.0999999669257	-0.00661211693659425	
133	44.8998268866388	0.56488037109375	13.1999999666732	0.022888096049428	
134	44.9998268863864	0.56427001953125	13.2999999664207	-0.0239053443074226	
135	45.0998268861339	0.5645751953125	13.3999999661683	0.0157673545181751	
136	45.1998268858814	0.56427001953125	13.4999999659158	-0.0111897364258766	
137	45.2998268856289	0.56427001953125	13.5999999656633	0.00457761948928237	
138	45.3998268853765	0.5645751953125	13.6999999654108	0.00457761948928237	
139	45.499826885124	0.565185546875	13.7999999651583	0.00762936566025019	
140	45.5998268848715	0.56488037109375	13.8999999649059	-0.0116983605548739	
141	45.699826884619	0.56488037109375	13.9999999646534	0.00559486821293831	
142	45.7998268843666	0.5645751953125	14.0999999644009	-0.00661211693659425	
143	45.8998268841141	0.56488037109375	14.1999999641484	0.00915523897856474	
144	45.9998268838616	0.56396484375	14.299999963896	-0.0213622227311134	
145	46.0998268836091	0.5633544921875	14.3999999636435	0.00050862436182797	
146	46.1998268833566	0.56304931640625	14.499999963391	-0.00152587308548391	
147	46.2998268831042	0.5633544921875	14.5999999631385	0.00712074106559157	
148	46.3998268828517	0.5633544921875	14.6999999628861	-0.00457761948928237	
149	46.4998268825992	0.5633544921875	14.7999999626336	0.00101724872365594	
150	46.5998268823467	0.562744140625	14.8999999623811	-0.0111897364258766	
151	46.6998268820943	0.562744140625	14.9999999621286	0.00712074106559157	
152	46.7998268818418	0.562744140625	15.0999999618762	-0.00203449744731188	
153	46.8998268815893	0.562744140625	15.1999999616237	0	
154	46.9998268813368	0.562744140625	15.2999999613712	0	
155	47.0998268810844	0.5633544921875	15.3999999611187	0.0111897364258766	
156	47.1998268808319	0.5633544921875	15.4999999608663	-0.00712074106559157	
157	47.2998268805794	0.56365966796875	15.5999999606138	0.00762936566025019	
158	47.3998268803269	0.56365966796875	15.6999999603613	-0.00356037053279579	
159	47.4998268800745	0.56427001953125	15.7999999601088	0.0122069846838713	
160	47.599826879822	0.56427001953125	15.8999999598564	-0.00712074106559157	
161	47.6998268795695	0.56365966796875	15.9999999596039	-0.00915523897856474	
162	47.799826879317	0.56396484375	16.0999999593514	0.0127156088128686	
163	47.8998268790646	0.56396484375	16.1999999590989	-0.00559486821293831	
164	47.9998268788121	0.56427001953125	16.2999999588465	0.00661211693659425	
165	48.0998268785596	0.56396484375	16.399999958594	-0.00915523897856474	
166	48.1998268783071	0.56396484375	16.4999999583415	0.00457761948928237	
167	48.2998268780547	0.56365966796875	16.599999958089	-0.00661211693659425	
168	48.3998268778022	0.56427001953125	16.6999999578366	0.0147501062601805	
169	48.4998268775497	0.56427001953125	16.7999999575841	-0.00813798978924751	
170	48.5998268772972	0.56427001953125	16.8999999573316	0.00203449744731188	
171	48.6998268770448	0.5645751953125	16.9999999570791	0.00559486821293831	
172	48.7998268767923	0.56427001953125	17.0999999568267	-0.00915523897856474	
173	48.8998268765398	0.56396484375	17.1999999565742	-0.00101724872365594	
174	48.9998268762873	0.56427001953125	17.2999999563217	0.00813798978924751	
175	49.0998268760349	0.56427001953125	17.3999999560692	-0.00457761948928237	
176	49.1998268757824	0.56396484375	17.4999999558167	-0.00457761948928237	
177	49.2998268755299	0.5633544921875	17.5999999555643	-0.00762936566025019	
178	49.3998268752774	0.56396484375	17.6999999553118	0.0172932278364897	
179	49.499826875025	0.5645751953125	17.7999999550593	0.00203449744731188	
180	49.5998268747725	0.56396484375	17.8999999548068	-0.016275979578495	
181	49.69982687452	0.56365966796875	17.9999999545544	0.00356037053279579	
182	49.7998268742675	0.5633544921875	18.0999999543019	-0.00406899489462376	
183	49.899826874015	0.56365966796875	18.1999999540494	0.00813798978924751	
184	49.9998268737626	0.56396484375	18.2999999537969	0.00101724872365594	
185	50.0998268735101	0.5633544921875	18.3999999535445	-0.0137328580021858	
186	50.1998268732576	0.56304931640625	18.499999953292	0.00254312180913985	
187	50.2998268730051	0.56304931640625	18.5999999530395	0.00152587308548391	
188	50.3998268727527	0.56365966796875	18.699999952787	0.0101724872365594	
189	50.4998268725002	0.56304931640625	18.7999999525346	-0.0183104779571295	
190	50.5998268722477	0.5633544921875	18.8999999522821	0.0147501062601805	
191	50.6998268719952	0.5633544921875	18.9999999520296	-0.00559486821293831	
192	50.7998268717428	0.5633544921875	19.0999999517771	0.00101724872365594	
193	50.8998268714903	0.56365966796875	19.1999999515247	0.00559486821293831	
194	50.9998268712378	0.56304931640625	19.2999999512722	-0.0147501062601805	
195	51.0998268709853	0.562744140625	19.3999999510197	0.00254312180913985	
196	51.1998268707329	0.56243896484375	19.4999999507672	-0.00406899489462376	
197	51.2998268704804	0.562744140625	19.5999999505148	0.00813798978924751	
198	51.3998268702279	0.56304931640625	19.6999999502623	0.00101724872365594	
199	51.4998268699754	0.562744140625	19.7999999500098	-0.00813798978924751	
200	51.599826869723	0.56243896484375	19.8999999497573	-0.00101724872365594	
201	51.6998268694705	0.562744140625	19.9999999495049	0.00813798978924751	
202	51.799826869218	0.562744140625	20.0999999492524	-0.00457761948928237	
203	51.8998268689655	0.562744140625	20.1999999489999	0.00101724872365594	
204	51.9998268687131	0.5621337890625	20.2999999487474	-0.0111897364258766	
205	52.0998268684606	0.56243896484375	20.399999948495	0.0127156088128686	
206	52.1998268682081	0.5621337890625	20.4999999482425	-0.0111897364258766	
207	52.2998268679556	0.56182861328125	20.59999994799	-0.00101724872365594	
208	52.3998268677032	0.5621337890625	20.6999999477375	0.00813798978924751	
209	52.4998268674507	0.5621337890625	20.799999947485	-0.00457761948928237	
210	52.5998268671982	0.56182861328125	20.8999999472326	-0.00457761948928237	
211	52.6998268669457	0.5621337890625	20.9999999469801	0.00915523897856474	
212	52.7998268666933	0.5621337890625	21.0999999467276	-0.00457761948928237	
213	52.8998268664408	0.5621337890625	21.1999999464751	0.00101724872365594	
214	52.9998268661883	0.56243896484375	21.2999999462227	0.00559486821293831	
215	53.0998268659358	0.56243896484375	21.3999999459702	-0.00356037053279579	
216	53.1998268656833	0.562744140625	21.4999999457177	0.00661211693659425	
217	53.2998268654309	0.5621337890625	21.5999999454652	-0.0147501062601805	
218	53.3998268651784	0.56304931640625	21.6999999452128	0.0249225944280624	
219	53.4998268649259	0.5633544921875	21.7999999449603	-0.00712074106559157	
220	53.5998268646734	0.56304931640625	21.8999999447078	-0.00610349234193563	
221	53.699826864421	0.56304931640625	21.9999999444553	0.00457761948928237	
222	53.7998268641685	0.5633544921875	22.0999999442029	0.00457761948928237	
223	53.899826863916	0.56365966796875	22.1999999439504	0.00203449744731188	
224	53.9998268636635	0.5633544921875	22.2999999436979	-0.00813798978924751	
225	54.0998268634111	0.56365966796875	22.3999999434454	0.0101724872365594	
226	54.1998268631586	0.562744140625	22.499999943193	-0.0213622227311134	
227	54.2998268629061	0.5633544921875	22.5999999429405	0.022888096049428	
228	54.3998268626536	0.56365966796875	22.699999942688	-0.00457761948928237	
229	54.4998268624012	0.5633544921875	22.7999999424355	-0.00712074106559157	
230	54.5998268621487	0.56304931640625	22.8999999421831	-0.00101724872365594	
231	54.6998268618962	0.562744140625	22.9999999419306	-0.00305174617096782	
232	54.7998268616437	0.562744140625	23.0999999416781	0.00254312180913985	
233	54.8998268613913	0.5633544921875	23.1999999414256	0.0101724872365594	
234	54.9998268611388	0.56243896484375	23.2999999411732	-0.0239053443074226	
235	55.0998268608863	0.56243896484375	23.3999999409207	0.0127156088128686	
236	55.1998268606338	0.56304931640625	23.4999999406682	0.00813798978924751	
237	55.2998268603814	0.562744140625	23.5999999404157	-0.0127156088128686	
238	55.3998268601289	0.5633544921875	23.6999999401633	0.0167846046388149	
239	55.4998268598764	0.562744140625	23.7999999399108	-0.0193277262151241	
240	55.5998268596239	0.562744140625	23.8999999396583	0.00915523897856474	
241	55.6998268593715	0.562744140625	23.9999999394058	-0.00203449744731188	
242	55.799826859119	0.562744140625	24.0999999391533	0	
243	55.8998268588665	0.562744140625	24.1999999389009	0	
244	55.999826858614	0.56243896484375	24.2999999386484	-0.00559486821293831	
245	56.0998268583616	0.562744140625	24.3999999383959	0.00915523897856474	
246	56.1998268581091	0.56243896484375	24.4999999381434	-0.0101724872365594	
247	56.2998268578566	0.56243896484375	24.599999937891	0.00457761948928237	
248	56.3998268576041	0.56243896484375	24.6999999376385	-0.00101724872365594	
249	56.4998268573516	0.56243896484375	24.799999937386	0	
250	56.5998268570992	0.5621337890625	24.8999999371335	-0.00559486821293831	
251	56.6998268568467	0.5621337890625	24.9999999368811	0.00356037053279579	
252	56.7998268565942	0.5621337890625	25.0999999366286	-0.00101724872365594	
253	56.8998268563417	0.5621337890625	25.1999999363761	0	
254	56.9998268560893	0.5615234375	25.2999999361236	-0.0111897364258766	
255	57.0998268558368	0.5621337890625	25.3999999358712	0.0183104779571295	
256	57.1998268555843	0.56182861328125	25.4999999356187	-0.0147501062601805	
257	57.2998268553318	0.5615234375	25.5999999353662	0	
258	57.3998268550794	0.5621337890625	25.6999999351137	0.0137328580021858	
259	57.4998268548269	0.5621337890625	25.7999999348613	-0.00813798978924751	
260	57.5998268545744	0.5621337890625	25.8999999346088	0.00203449744731188	
261	57.6998268543219	0.56182861328125	25.9999999343563	-0.00559486821293831	
262	57.7998268540695	0.56121826171875	26.0999999341038	-0.00762936566025019	
263	57.899826853817	0.56121826171875	26.1999999338514	0.00610349234193563	
264	57.9998268535645	0.56121826171875	26.2999999335989	-0.00203449744731188	
265	58.099826853312	0.5609130859375	26.3999999333464	-0.00559486821293831	
266	58.1998268530596	0.5615234375	26.4999999330939	0.0147501062601805	
267	58.2998268528071	0.56121826171875	26.5999999328415	-0.0137328580021858	
268	58.3998268525546	0.56121826171875	26.699999932589	0.00559486821293831	
269	58.4998268523021	0.56182861328125	26.7999999323365	0.0101724872365594	
270	58.5998268520497	0.5621337890625	26.899999932084	-0.00152587308548391	
271	58.6998268517972	0.56182861328125	26.9999999318316	-0.00712074106559157	
272	58.7998268515447	0.56243896484375	27.0999999315791	0.0157673545181751	
273	58.8998268512922	0.56243896484375	27.1999999313266	-0.00813798978924751	
274	58.9998268510398	0.562744140625	27.2999999310741	0.00762936566025019	
275	59.0998268507873	0.562744140625	27.3999999308217	-0.00356037053279579	
276	59.1998268505348	0.56304931640625	27.4999999305692	0.00661211693659425	
277	59.2998268502823	0.56304931640625	27.5999999303167	-0.00356037053279579	
278	59.3998268500299	0.5633544921875	27.6999999300642	0.00661211693659425	
279	59.4998268497774	0.5633544921875	27.7999999298117	-0.00356037053279579	
280	59.5998268495249	0.5633544921875	27.8999999295593	0.00101724872365594	
281	59.6998268492724	0.5633544921875	27.9999999293068	0	
282	59.79982684902	0.5633544921875	28.0999999290543	0	
283	59.8998268487675	0.56365966796875	28.1999999288018	0.00559486821293831	
284	59.999826848515	0.56365966796875	28.2999999285494	-0.00356037053279579	
285	60.0998268482625	0.56396484375	28.3999999282969	0.00661211693659425	
286	60.19982684801	0.56396484375	28.4999999280444	-0.00356037053279579	
287	60.2998268477576	0.56396484375	28.5999999277919	0.00101724872365594	
288	60.3998268475051	0.56396484375	28.6999999275395	0	
289	60.4998268472526	0.56427001953125	28.799999927287	0.00559486821293831	
290	60.5998268470001	0.56427001953125	28.8999999270345	-0.00356037053279579	
291	60.6998268467477	0.56427001953125	28.999999926782	0.00101724872365594	
292	60.7998268464952	0.56396484375	29.0999999265296	-0.00559486821293831	
293	60.8998268462427	0.56427001953125	29.1999999262771	0.00915523897856474	
294	60.9998268459902	0.56396484375	29.2999999260246	-0.0101724872365594	
295	61.0998268457378	0.56427001953125	29.3999999257721	0.0101724872365594	
296	61.1998268454853	0.56427001953125	29.4999999255197	-0.00457761948928237	
297	61.2998268452328	0.5645751953125	29.5999999252672	0.00661211693659425	
298	61.3998268449803	0.56427001953125	29.6999999250147	-0.00915523897856474	
299	61.4998268447279	0.56396484375	29.7999999247622	-0.00101724872365594	
300	61.5998268444754	0.56396484375	29.8999999245098	0.00254312180913985	
301	61.6998268442229	0.56427001953125	29.9999999242573	0.00457761948928237	
302	61.7998268439704	0.56396484375	30.0999999240048	-0.00915523897856474	
303	61.899826843718	0.5633544921875	30.1999999237523	-0.00661211693659425	
304	61.9998268434655	0.56396484375	30.2999999234999	0.0172932278364897	
305	62.099826843213	0.56365966796875	30.3999999232474	-0.0147501062601805	
306	62.1998268429605	0.5633544921875	30.4999999229949	0	
307	62.2998268427081	0.5633544921875	30.5999999227424	0.00254312180913985	
308	62.3998268424556	0.5633544921875	30.69999992249	-0.00101724872365594	
309	62.4998268422031	0.56304931640625	30.7999999222375	-0.00559486821293831	
310	62.5998268419506	0.56365966796875	30.899999921985	0.0147501062601805	
311	62.6998268416982	0.56304931640625	30.9999999217325	-0.0193277262151241	
312	62.7998268414457	0.5633544921875	31.09999992148	0.0147501062601805	
313	62.8998268411932	0.56304931640625	31.1999999212276	-0.0111897364258766	
314	62.9998268409407	0.562744140625	31.2999999209751	-0.00101724872365594	
315	63.0998268406883	0.56304931640625	31.3999999207226	0.00813798978924751	
316	63.1998268404358	0.56243896484375	31.4999999204701	-0.0157673545181751	
317	63.2998268401833	0.56243896484375	31.5999999202177	0.00813798978924751	
318	63.3998268399308	0.5633544921875	31.6999999199652	0.0147501062601805	
319	63.4998268396783	0.562744140625	31.7999999197127	-0.0218708477914333	
320	63.5998268394259	0.56304931640625	31.8999999194602	0.0157673545181751	
321	63.6998268391734	0.56304931640625	31.9999999192078	-0.00559486821293831	
322	63.7998268389209	0.562744140625	32.0999999189553	-0.00457761948928237	
323	63.8998268386684	0.562744140625	32.1999999187028	0.00356037053279579	
324	63.999826838416	0.56304931640625	32.2999999184503	0.00457761948928237	
325	64.0998268381635	0.5633544921875	32.3999999181979	0.00203449744731188	
326	64.199826837911	0.56304931640625	32.4999999179454	-0.00813798978924751	
327	64.2998268376585	0.56304931640625	32.5999999176929	0.00457761948928237	
328	64.3998268374061	0.56304931640625	32.6999999174404	-0.00101724872365594	
329	64.4998268371536	0.56365966796875	32.799999917188	0.0111897364258766	
330	64.5998268369011	0.5633544921875	32.8999999169355	-0.0127156088128686	
331	64.6998268366486	0.5633544921875	32.999999916683	0.00559486821293831	
332	64.7998268363962	0.562744140625	33.0999999164305	-0.0122069846838713	
333	64.8998268361437	0.56304931640625	33.1999999161781	0.0127156088128686	
334	64.9998268358912	0.56304931640625	33.2999999159256	-0.00559486821293831	
335	65.0998268356387	0.56365966796875	33.3999999156731	0.0122069846838713	
336	65.1998268353863	0.56304931640625	33.4999999154206	-0.0183104779571295	
337	65.2998268351338	0.56396484375	33.5999999151682	0.0259398426860571	
338	65.3998268348813	0.56488037109375	33.6999999149157	0.00406899489462376	
339	65.4998268346288	0.56488037109375	33.7999999146632	-0.00762936566025019	
340	65.5998268343764	0.56488037109375	33.8999999144107	0.00305174617096782	
341	65.6998268341239	0.56488037109375	33.9999999141583	0	
342	65.7998268338714	0.56365966796875	34.0999999139058	-0.0223794728517532	
343	65.8998268336189	0.5633544921875	34.1999999136533	0.00864661391824484	
344	65.9998268333665	0.5633544921875	34.2999999134008	-0.00050862436182797	
345	66.099826833114	0.5621337890625	34.3999999131483	-0.0233967211097479	
346	66.1998268328615	0.56182861328125	34.4999999128959	0.00864661391824484	
347	66.299826832609	0.56304931640625	34.5999999126434	0.0218708477914333	
348	66.3998268323566	0.56304931640625	34.6999999123909	-0.0152587313205004	
349	66.4998268321041	0.56243896484375	34.7999999121384	-0.00712074106559157	
350	66.5998268318516	0.56243896484375	34.899999911886	0.00712074106559157	
351	66.6998268315991	0.56304931640625	34.9999999116335	0.00915523897856474	
352	66.7998268313466	0.56304931640625	35.099999911381	-0.00712074106559157	
353	66.8998268310942	0.56243896484375	35.1999999111285	-0.00915523897856474	
354	66.9998268308417	0.5621337890625	35.2999999108761	0.00152587308548391	
355	67.0998268305892	0.562744140625	35.3999999106236	0.0127156088128686	
356	67.1998268303367	0.56243896484375	35.4999999103711	-0.0137328580021858	
357	67.2998268300843	0.5621337890625	35.5999999101186	0	
358	67.3998268298318	0.56182861328125	35.6999999098662	-0.00305174617096782	
359	67.4998268295793	0.56182861328125	35.7999999096137	0.00254312180913985	
360	67.5998268293268	0.5621337890625	35.8999999093612	0.00457761948928237	
361	67.6998268290744	0.5621337890625	35.9999999091087	-0.00356037053279579	
362	67.7998268288219	0.56182861328125	36.0999999088563	-0.00457761948928237	
363	67.8998268285694	0.5621337890625	36.1999999086038	0.00915523897856474	
364	67.9998268283169	0.56182861328125	36.2999999083513	-0.0101724872365594	
365	68.0998268280645	0.56243896484375	36.3999999080988	0.0157673545181751	
366	68.199826827812	0.56304931640625	36.4999999078464	0.00305174617096782	
367	68.2998268275595	0.56304931640625	36.5999999075939	-0.0050862436182797	
368	68.399826827307	0.56304931640625	36.6999999073414	0.00203449744731188	
369	68.4998268270546	0.56304931640625	36.7999999070889	0	
370	68.5998268268021	0.562744140625	36.8999999068365	-0.00559486821293831	
371	68.6998268265496	0.562744140625	36.999999906584	0.00356037053279579	
372	68.7998268262971	0.5621337890625	37.0999999063315	-0.0122069846838713	
373	68.8998268260447	0.562744140625	37.199999906079	0.0183104779571295	
374	68.9998268257922	0.56243896484375	37.2999999058266	-0.0147501062601805	
375	69.0998268255397	0.562744140625	37.3999999055741	0.0111897364258766	
376	69.1998268252872	0.56243896484375	37.4999999053216	-0.0101724872365594	
377	69.2998268250348	0.5621337890625	37.5999999050691	-0.00101724872365594	
378	69.3998268247823	0.56243896484375	37.6999999048167	0.00813798978924751	
379	69.4998268245298	0.562744140625	37.7999999045642	0.00101724872365594	
380	69.5998268242773	0.562744140625	37.8999999043117	-0.00254312180913985	
381	69.6998268240249	0.56304931640625	37.9999999040592	0.00661211693659425	
382	69.7998268237724	0.56304931640625	38.0999999038067	-0.00356037053279579	
383	69.8998268235199	0.56243896484375	38.1999999035543	-0.0101724872365594	
384	69.9998268232674	0.56243896484375	38.2999999033018	0.00712074106559157	
385	70.099826823015	0.56243896484375	38.3999999030493	-0.00203449744731188	
386	70.1998268227625	0.56243896484375	38.4999999027968	0	
387	70.29982682251	0.5621337890625	38.5999999025444	-0.00559486821293831	
388	70.3998268222575	0.5621337890625	38.6999999022919	0.00356037053279579	
389	70.499826822005	0.5621337890625	38.7999999020394	-0.00101724872365594	
390	70.5998268217526	0.56243896484375	38.8999999017869	0.00559486821293831	
391	70.6998268215001	0.5621337890625	38.9999999015345	-0.00915523897856474	
392	70.7998268212476	0.56182861328125	39.099999901282	-0.00101724872365594	
393	70.8998268209951	0.56182861328125	39.1999999010295	0.00254312180913985	
394	70.9998268207427	0.56182861328125	39.299999900777	-0.00101724872365594	
395	71.0998268204902	0.5621337890625	39.3999999005246	0.00559486821293831	
396	71.1998268202377	0.5621337890625	39.4999999002721	-0.00356037053279579	
397	71.2998268199852	0.5621337890625	39.5999999000196	0.00101724872365594	
398	71.3998268197328	0.5615234375	39.6999998997671	-0.0111897364258766	
399	71.4998268194803	0.5615234375	39.7999998995147	0.00712074106559157	
400	71.5998268192278	0.5615234375	39.8999998992622	-0.00203449744731188	
401	71.6998268189753	0.56121826171875	39.9999998990097	-0.00559486821293831	
402	71.7998268187229	0.56121826171875	40.0999998987572	0.00356037053279579	
403	71.8998268184704	0.56121826171875	40.1999998985048	-0.00101724872365594	
404	71.9998268182179	0.56121826171875	40.2999998982523	0	
405	72.0998268179654	0.56121826171875	40.3999998979998	0	
406	72.199826817713	0.5615234375	40.4999998977473	0.00559486821293831	
407	72.2998268174605	0.5609130859375	40.5999998974949	-0.0147501062601805	
408	72.399826817208	0.56121826171875	40.6999998972424	0.0137328580021858	
409	72.4998268169555	0.56121826171875	40.7999998969899	-0.00559486821293831	
410	72.5998268167031	0.5609130859375	40.8999998967374	-0.00457761948928237	
411	72.6998268164506	0.56060791015625	40.999999896485	-0.00203449744731188	
412	72.7998268161981	0.5609130859375	41.0999998962325	0.00813798978924751	
413	72.8998268159456	0.56060791015625	41.19999989598	-0.0101724872365594	
414	72.9998268156932	0.56060791015625	41.2999998957275	0.00457761948928237	
415	73.0998268154407	0.560302734375	41.399999895475	-0.00661211693659425	
416	73.1998268151882	0.560302734375	41.4999998952226	0.00356037053279579	
417	73.2998268149357	0.5609130859375	41.5999998949701	0.0101724872365594	
418	73.3998268146833	0.5609130859375	41.6999998947176	-0.00712074106559157	
419	73.4998268144308	0.55999755859375	41.7999998944651	-0.0147501062601805	
420	73.5998268141783	0.56060791015625	41.8999998942127	0.0218708477914333	
421	73.6998268139258	0.55999755859375	41.9999998939602	-0.0213622227311134	
422	73.7998268136733	0.5596923828125	42.0999998937077	0.00356037053279579	
423	73.8998268134209	0.55938720703125	42.1999998934552	-0.00406899489462376	
424	73.9998268131684	0.55938720703125	42.2999998932028	0.00254312180913985	
425	74.0998268129159	0.55999755859375	42.3999998929503	0.0101724872365594	
426	74.1998268126634	0.5596923828125	42.4999998926978	-0.0127156088128686	
427	74.299826812411	0.5596923828125	42.5999998924453	0.00559486821293831	
428	74.3998268121585	0.55938720703125	42.6999998921929	-0.00661211693659425	
429	74.499826811906	0.55938720703125	42.7999998919404	0.00356037053279579	
430	74.5998268116535	0.55908203125	42.8999998916879	-0.00661211693659425	
431	74.6998268114011	0.55877685546875	42.9999998914354	-0.00203449744731188	
432	74.7998268111486	0.55877685546875	43.099999891183	0.00254312180913985	
433	74.8998268108961	0.55938720703125	43.1999998909305	0.0101724872365594	
434	74.9998268106436	0.55908203125	43.299999890678	-0.0127156088128686	
435	75.0998268103912	0.5584716796875	43.3999998904255	-0.00559486821293831	
436	75.1998268101387	0.55908203125	43.4999998901731	0.0172932278364897	
437	75.2998268098862	0.55877685546875	43.5999998899206	-0.0147501062601805	
438	75.3998268096337	0.55877685546875	43.6999998896681	0.00559486821293831	
439	75.4998268093813	0.5584716796875	43.7999998894156	-0.00661211693659425	
440	75.5998268091288	0.55938720703125	43.8999998891632	0.0203449744731188	
441	75.6998268088763	0.55908203125	43.9999998889107	-0.0172932278364897	
442	75.7998268086238	0.55938720703125	44.0999998886582	0.0122069846838713	
443	75.8998268083714	0.5596923828125	44.1999998884057	0.00101724872365594	
444	75.9998268081189	0.55938720703125	44.2999998881533	-0.00813798978924751	
445	76.0998268078664	0.55938720703125	44.3999998879008	0.00457761948928237	
446	76.1998268076139	0.55938720703125	44.4999998876483	-0.00101724872365594	
447	76.2998268073615	0.5596923828125	44.5999998873958	0.00559486821293831	
448	76.399826807109	0.55999755859375	44.6999998871433	0.00203449744731188	
449	76.4998268068565	0.55999755859375	44.7999998868909	-0.00254312180913985	
450	76.599826806604	0.55999755859375	44.8999998866384	0.00101724872365594	
451	76.6998268063516	0.55999755859375	44.9999998863859	0	
452	76.7998268060991	0.55938720703125	45.0999998861334	-0.0111897364258766	
453	76.8998268058466	0.55938720703125	45.199999885881	0.00712074106559157	
454	76.9998268055941	0.55938720703125	45.2999998856285	-0.00203449744731188	
455	77.0998268053416	0.55908203125	45.399999885376	-0.00559486821293831	
456	77.1998268050892	0.55877685546875	45.4999998851235	-0.00203449744731188	
457	77.2998268048367	0.5584716796875	45.5999998848711	-0.00305174617096782	
458	77.3998268045842	0.55816650390625	45.6999998846186	-0.00305174617096782	
459	77.4998268043317	0.55816650390625	45.7999998843661	0.00254312180913985	
460	77.5998268040793	0.55816650390625	45.8999998841136	-0.00101724872365594	
461	77.6998268038268	0.557861328125	45.9999998838612	-0.00559486821293831	
462	77.7998268035743	0.557861328125	46.0999998836087	0.00356037053279579	
463	77.8998268033218	0.557861328125	46.1999998833562	-0.00101724872365594	
464	77.9998268030694	0.557861328125	46.2999998831037	0	
465	78.0998268028169	0.557861328125	46.3999998828513	0	
466	78.1998268025644	0.557861328125	46.4999998825988	0	
467	78.2998268023119	0.557861328125	46.5999998823463	0	
468	78.3998268020595	0.557861328125	46.6999998820938	0	
469	78.499826801807	0.557861328125	46.7999998818414	0	
470	78.5998268015545	0.55816650390625	46.8999998815889	0.00559486821293831	
471	78.699826801302	0.557861328125	46.9999998813364	-0.00915523897856474	
472	78.7998268010496	0.557861328125	47.0999998810839	0.00457761948928237	
473	78.8998268007971	0.557861328125	47.1999998808315	-0.00101724872365594	
474	78.9998268005446	0.55755615234375	47.299999880579	-0.00559486821293831	
475	79.0998268002921	0.557861328125	47.3999998803265	0.00915523897856474	
476	79.1998268000397	0.55755615234375	47.499999880074	-0.0101724872365594	
477	79.2998267997872	0.5572509765625	47.5999998798216	-0.00101724872365594	
478	79.3998267995347	0.5572509765625	47.6999998795691	0.00254312180913985	
479	79.4998267992822	0.557861328125	47.7999998793166	0.0101724872365594	
480	79.5998267990298	0.55816650390625	47.8999998790641	-0.00152587308548391	
481	79.6998267987773	0.55755615234375	47.9999998788116	-0.0127156088128686	
482	79.7998267985248	0.556640625	48.0999998785592	-0.00864661391824484	
483	79.8998267982723	0.55633544921875	48.1999998783067	0.00305174617096782	
484	79.9998267980199	0.556640625	48.2999998780542	0.00610349234193563	
485	80.0998267977674	0.556640625	48.3999998778017	-0.00457761948928237	
486	80.1998267975149	0.55755615234375	48.4999998775493	0.0178018528968096	
487	80.2998267972624	0.5572509765625	48.5999998772968	-0.016275979578495	
488	80.39982679701	0.55755615234375	48.6999998770443	0.0122069846838713	
489	80.4998267967575	0.556640625	48.7999998767918	-0.0213622227311134	
490	80.599826796505	0.5572509765625	48.8999998765394	0.022888096049428	
491	80.6998267962525	0.5572509765625	48.9999998762869	-0.0101724872365594	
492	80.799826796	0.5572509765625	49.0999998760344	0.00203449744731188	
493	80.8998267957476	0.55694580078125	49.1999998757819	-0.00559486821293831	
494	80.9998267954951	0.5572509765625	49.2999998755295	0.00915523897856474	
495	81.0998267952426	0.556640625	49.399999875277	-0.0157673545181751	
496	81.1998267949901	0.55694580078125	49.4999998750245	0.0137328580021858	
497	81.2998267947377	0.55694580078125	49.599999874772	-0.00559486821293831	
498	81.3998267944852	0.5572509765625	49.6999998745196	0.00661211693659425	
499	81.4998267942327	0.55633544921875	49.7999998742671	-0.0203449744731188	
500	81.5998267939802	0.55694580078125	49.8999998740146	0.022888096049428	
501	81.6998267937278	0.556640625	49.9999998737621	-0.0157673545181751	
502	81.7998267934753	0.55633544921875	50.0999998735097	0	
503	81.8998267932228	0.55633544921875	50.1999998732572	0.00254312180913985	
504	81.9998267929703	0.55694580078125	50.2999998730047	0.0101724872365594	
505	82.0998267927179	0.5572509765625	50.3999998727522	-0.00152587308548391	
506	82.1998267924654	0.5572509765625	50.4999998724998	-0.00152587308548391	
507	82.2998267922129	0.55694580078125	50.5999998722473	-0.00457761948928237	
508	82.3998267919604	0.55694580078125	50.6999998719948	0.00356037053279579	
509	82.499826791708	0.55755615234375	50.7999998717423	0.0101724872365594	
510	82.5998267914555	0.55755615234375	50.8999998714899	-0.00712074106559157	
511	82.699826791203	0.55755615234375	50.9999998712374	0.00203449744731188	
512	82.7998267909505	0.557861328125	51.0999998709849	0.00559486821293831	
513	82.8998267906981	0.55755615234375	51.1999998707324	-0.00915523897856474	
514	82.9998267904456	0.5572509765625	51.29999987048	-0.00101724872365594	
515	83.0998267901931	0.557861328125	51.3999998702275	0.0137328580021858	
516	83.1998267899406	0.557861328125	51.499999869975	-0.00813798978924751	
517	83.2998267896882	0.55816650390625	51.5999998697225	0.00762936566025019	
518	83.3998267894357	0.5584716796875	51.69999986947	0.00203449744731188	
519	83.4998267891832	0.55816650390625	51.7999998692176	-0.00813798978924751	
520	83.5998267889307	0.557861328125	51.8999998689651	-0.00101724872365594	
521	83.6998267886783	0.557861328125	51.9999998687126	0.00254312180913985	
522	83.7998267884258	0.5584716796875	52.0999998684601	0.0101724872365594	
523	83.8998267881733	0.5584716796875	52.1999998682077	-0.00712074106559157	
524	83.9998267879208	0.55877685546875	52.2999998679552	0.00762936566025019	
525	84.0998267876683	0.55816650390625	52.3999998677027	-0.0147501062601805	
526	84.1998267874159	0.5584716796875	52.4999998674502	0.0137328580021858	
527	84.2998267871634	0.5584716796875	52.5999998671978	-0.00559486821293831	
528	84.3998267869109	0.55816650390625	52.6999998669453	-0.00457761948928237	
529	84.4998267866584	0.55816650390625	52.7999998666928	0.00356037053279579	
530	84.599826786406	0.5584716796875	52.8999998664403	0.00457761948928237	
531	84.6998267861535	0.55877685546875	52.9999998661879	0.00203449744731188	
532	84.799826785901	0.55908203125	53.0999998659354	0.00305174617096782	
533	84.8998267856485	0.55908203125	53.1999998656829	-0.00254312180913985	
534	84.9998267853961	0.55938720703125	53.2999998654304	0.00661211693659425	
535	85.0998267851436	0.5596923828125	53.399999865178	0.00203449744731188	
536	85.1998267848911	0.56060791015625	53.4999998649255	0.0142414821311831	
537	85.2998267846386	0.5596923828125	53.599999864673	-0.026448467746377	
538	85.3998267843862	0.5609130859375	53.6999998644205	0.0361123308539391	
539	85.4998267841337	0.560302734375	53.7999998641681	-0.0284829642623663	
540	85.5998267838812	0.56060791015625	53.8999998639156	0.0167846046388149	
541	85.6998267836287	0.56060791015625	53.9999998636631	-0.00559486821293831	
542	85.7998267833763	0.56060791015625	54.0999998634106	0.00101724872365594	
543	85.8998267831238	0.560302734375	54.1999998631582	-0.00559486821293831	
544	85.9998267828713	0.55938720703125	54.2999998629057	-0.0132242338731885	
545	86.0998267826188	0.5596923828125	54.3999998626532	0.0152587313205004	
546	86.1998267823664	0.5596923828125	54.4999998624007	-0.00661211693659425	
547	86.2998267821139	0.55999755859375	54.5999998621483	0.00661211693659425	
548	86.3998267818614	0.560302734375	54.6999998618958	0.00203449744731188	
549	86.4998267816089	0.560302734375	54.7999998616433	-0.00254312180913985	
550	86.5998267813565	0.55999755859375	54.8999998613908	-0.00457761948928237	
551	86.699826781104	0.560302734375	54.9999998611383	0.00915523897856474	
552	86.7998267808515	0.55999755859375	55.0999998608859	-0.0101724872365594	
553	86.899826780599	0.5596923828125	55.1999998606334	-0.00101724872365594	
554	86.9998267803466	0.5596923828125	55.2999998603809	0.00254312180913985	
555	87.0998267800941	0.55999755859375	55.3999998601284	0.00457761948928237	
556	87.1998267798416	0.55999755859375	55.499999859876	-0.00356037053279579	
557	87.2998267795891	0.55999755859375	55.5999998596235	0.00101724872365594	
558	87.3998267793366	0.55999755859375	55.699999859371	0	
559	87.4998267790842	0.5596923828125	55.7999998591185	-0.00559486821293831	
560	87.5998267788317	0.55938720703125	55.8999998588661	-0.00203449744731188	
561	87.6998267785792	0.55938720703125	55.9999998586136	0.00254312180913985	
562	87.7998267783267	0.55877685546875	56.0999998583611	-0.0122069846838713	
563	87.8998267780743	0.5584716796875	56.1999998581086	0.00152587308548391	
564	87.9998267778218	0.55877685546875	56.2999998578562	0.00712074106559157	
565	88.0998267775693	0.55877685546875	56.3999998576037	-0.00457761948928237	
566	88.1998267773168	0.55877685546875	56.4999998573512	0.00101724872365594	
567	88.2998267770644	0.55908203125	56.5999998570987	0.00559486821293831	
568	88.3998267768119	0.55908203125	56.6999998568463	-0.00356037053279579	
569	88.4998267765594	0.55877685546875	56.7999998565938	-0.00457761948928237	
570	88.5998267763069	0.55908203125	56.8999998563413	0.00915523897856474	
571	88.6998267760545	0.5584716796875	56.9999998560888	-0.0157673545181751	
572	88.799826775802	0.55877685546875	57.0999998558364	0.0137328580021858	
573	88.8998267755495	0.55877685546875	57.1999998555839	-0.00559486821293831	
574	88.999826775297	0.55908203125	57.2999998553314	0.00661211693659425	
575	89.0998267750446	0.55908203125	57.3999998550789	-0.00356037053279579	
576	89.1998267747921	0.55938720703125	57.4999998548265	0.00661211693659425	
577	89.2998267745396	0.55908203125	57.599999854574	-0.00915523897856474	
578	89.3998267742871	0.55877685546875	57.6999998543215	-0.00101724872365594	
579	89.4998267740347	0.55938720703125	57.799999854069	0.0137328580021858	
580	89.5998267737822	0.55908203125	57.8999998538166	-0.0137328580021858	
581	89.6998267735297	0.55908203125	57.9999998535641	0.00559486821293831	
582	89.7998267732772	0.55908203125	58.0999998533116	-0.00101724872365594	
583	89.8998267730248	0.5596923828125	58.1999998530591	0.0111897364258766	
584	89.9998267727723	0.55938720703125	58.2999998528066	-0.0127156088128686	
585	90.0998267725198	0.55938720703125	58.3999998525542	0.00559486821293831	
586	90.1998267722673	0.55938720703125	58.4999998523017	-0.00101724872365594	
587	90.2998267720149	0.55938720703125	58.5999998520492	0	
588	90.3998267717624	0.55938720703125	58.6999998517967	0	
589	90.4998267715099	0.55908203125	58.7999998515443	-0.00559486821293831	
590	90.5998267712574	0.55938720703125	58.8999998512918	0.00915523897856474	
591	90.699826771005	0.5596923828125	58.9999998510393	0.00101724872365594	
592	90.7998267707525	0.55938720703125	59.0999998507868	-0.00813798978924751	
593	90.8998267705	0.55938720703125	59.1999998505344	0.00457761948928237	
594	90.9998267702475	0.5596923828125	59.2999998502819	0.00457761948928237	
595	91.099826769995	0.5596923828125	59.3999998500294	-0.00356037053279579	
596	91.1998267697426	0.55908203125	59.4999998497769	-0.0101724872365594	
597	91.2998267694901	0.55908203125	59.5999998495245	0.00712074106559157	
598	91.3998267692376	0.55938720703125	59.699999849272	0.00356037053279579	
599	91.4998267689851	0.55908203125	59.7999998490195	-0.00915523897856474	
600	91.5998267687327	0.55877685546875	59.899999848767	-0.00101724872365594	
