Index	Potential applied (V)	Time (s)	WE(1).Current (A)	WE(1).Potential (V)
1	0.00244140625	238.972212396653	3.4332275390625E-07	0.00261535644531249
2	0.0048828125	238.996612396592	6.58569335937501E-07	0.0050628662109375
3	0.00732421875	239.02101239653	9.64965820312499E-07	0.00748291015624999
4	0.009765625	239.045412396468	1.27197265625E-06	0.0099029541015625
5	0.01220703125	239.069812396407	1.58905029296875E-06	0.012347412109375
6	0.0146484375	239.094212396345	1.92840576171875E-06	0.0147735595703125
7	0.01708984375	239.118612396284	2.232666015625E-06	0.0172210693359375
8	0.01953125	239.143012396222	2.5457763671875E-06	0.0196533203125
9	0.02197265625	239.16741239616	2.861328125E-06	0.02210693359375
10	0.0244140625	239.191812396099	3.18115234375E-06	0.0245574951171875
11	0.02685546875	239.216212396037	3.485107421875E-06	0.02698974609375
12	0.029296875	239.240612395976	3.82232666015625E-06	0.0294342041015625
13	0.03173828125	239.265012395914	4.11895751953125E-06	0.031866455078125
14	0.0341796875	239.289412395852	4.4488525390625E-06	0.034307861328125
15	0.03662109375	239.313812395791	4.80194091796875E-06	0.0367584228515625
16	0.0390625	239.338212395729	5.1361083984375E-06	0.039190673828125
17	0.04150390625	239.362612395667	5.4290771484375E-06	0.0416473388671875
18	0.0439453125	239.387012395606	5.804443359375E-06	0.04410400390625
19	0.04638671875	239.411412395544	6.14013671875E-06	0.0465301513671875
20	0.048828125	239.435812395483	6.3812255859375E-06	0.0489654541015625
21	0.05126953125	239.460212395421	6.781005859375E-06	0.05120849609375
22	0.0537109375	239.484612395359	7.0159912109375E-06	0.0535888671875
23	0.05615234375	239.509012395298	7.3333740234375E-06	0.05609130859375
24	0.05859375	239.533412395236	7.7484130859375E-06	0.058502197265625
25	0.06103515625	239.557812395175	8.09326171875E-06	0.0609130859375
26	0.0634765625	239.582212395113	8.392333984375E-06	0.063323974609375
27	0.06591796875	239.606612395051	8.7127685546875E-06	0.0657958984375
28	0.068359375	239.63101239499	9.063720703125E-06	0.0682373046875
29	0.07080078125	239.655412394928	9.4390869140625E-06	0.070709228515625
30	0.0732421875	239.679812394867	9.7808837890625E-06	0.07305908203125
31	0.07568359375	239.704212394805	1.0009765625E-05	0.075531005859375
32	0.078125	239.728612394743	1.03912353515625E-05	0.07806396484375
33	0.08056640625	239.753012394682	1.07147216796875E-05	0.080413818359375
34	0.0830078125	239.77741239462	1.11846923828125E-05	0.082916259765625
35	0.08544921875	239.801812394559	1.15020751953125E-05	0.0853271484375
36	0.087890625	239.826212394497	1.17950439453125E-05	0.087799072265625
37	0.09033203125	239.850612394435	1.21734619140625E-05	0.090179443359375
38	0.0927734375	239.875012394374	1.2493896484375E-05	0.092620849609375
39	0.09521484375	239.899412394312	1.2884521484375E-05	0.095062255859375
40	0.09765625	239.923812394251	1.324462890625E-05	0.097503662109375
41	0.10009765625	239.948212394189	1.34674072265625E-05	0.0999755859375
42	0.1025390625	239.972612394127	1.378173828125E-05	0.102386474609375
43	0.10498046875	239.997012394066	1.419677734375E-05	0.1048583984375
44	0.107421875	240.021412394004	1.4569091796875E-05	0.107208251953125
45	0.10986328125	240.045812393943	1.49322509765625E-05	0.109649658203125
46	0.1123046875	240.070212393881	1.5277099609375E-05	0.11212158203125
47	0.11474609375	240.094612393819	1.57135009765625E-05	0.11456298828125
48	0.1171875	240.119012393758	1.59393310546875E-05	0.116973876953125
49	0.11962890625	240.143412393696	1.634521484375E-05	0.119415283203125
50	0.1220703125	240.167812393635	1.66229248046875E-05	0.121826171875
51	0.12451171875	240.192212393573	1.70166015625E-05	0.124298095703125
52	0.126953125	240.216612393511	1.73248291015625E-05	0.12677001953125
53	0.12939453125	240.24101239345	1.77490234375E-05	0.12908935546875
54	0.1318359375	240.265412393388	1.79901123046875E-05	0.131561279296875
55	0.13427734375	240.289812393327	1.84112548828125E-05	0.134033203125
56	0.13671875	240.314212393265	1.87957763671875E-05	0.136474609375
57	0.13916015625	240.338612393203	1.9012451171875E-05	0.138916015625
58	0.1416015625	240.363012393142	1.94091796875E-05	0.141326904296875
59	0.14404296875	240.38741239308	1.9805908203125E-05	0.143768310546875
60	0.146484375	240.411812393019	2.022705078125E-05	0.146148681640625
61	0.14892578125	240.436212392957	2.06390380859375E-05	0.14862060546875
62	0.1513671875	240.460612392895	2.1075439453125E-05	0.15106201171875
63	0.15380859375	240.485012392834	2.13592529296875E-05	0.15350341796875
64	0.15625	240.509412392772	2.15301513671875E-05	0.155914306640625
65	0.15869140625	240.533812392711	2.19818115234375E-05	0.1583251953125
66	0.1611328125	240.558212392649	2.2314453125E-05	0.160736083984375
67	0.16357421875	240.582612392587	2.2900390625E-05	0.1632080078125
68	0.166015625	240.607012392526	2.3187255859375E-05	0.1656494140625
69	0.16845703125	240.631412392464	2.36053466796875E-05	0.168060302734375
70	0.1708984375	240.655812392402	2.41485595703125E-05	0.17047119140625
71	0.17333984375	240.680212392341	2.415771484375E-05	0.172943115234375
72	0.17578125	240.704612392279	2.43011474609375E-05	0.175323486328125
73	0.17822265625	240.729012392218	2.48138427734375E-05	0.177886962890625
74	0.1806640625	240.753412392156	2.52593994140625E-05	0.18023681640625
75	0.18310546875	240.777812392094	2.57049560546875E-05	0.182647705078125
76	0.185546875	240.802212392033	2.62420654296875E-05	0.18505859375
77	0.18798828125	240.826612391971	2.64923095703125E-05	0.1875
78	0.1904296875	240.85101239191	2.6708984375E-05	0.189971923828125
79	0.19287109375	240.875412391848	2.71331787109375E-05	0.1923828125
80	0.1953125	240.899812391786	2.7569580078125E-05	0.194854736328125
81	0.19775390625	240.924212391725	2.7972412109375E-05	0.197235107421875
82	0.2001953125	240.948612391663	2.86865234375E-05	0.19964599609375
83	0.20263671875	240.973012391602	2.8533935546875E-05	0.202117919921875
84	0.205078125	240.99741239154	2.9205322265625E-05	0.20452880859375
85	0.20751953125	241.021812391478	2.93121337890625E-05	0.206939697265625
86	0.2099609375	241.046212391417	2.98919677734375E-05	0.20941162109375
87	0.21240234375	241.070612391355	2.9931640625E-05	0.211822509765625
88	0.21484375	241.095012391294	3.04901123046875E-05	0.2142333984375
89	0.21728515625	241.119412391232	3.0853271484375E-05	0.2171630859375
90	0.2197265625	241.14381239117	3.1341552734375E-05	0.21966552734375
91	0.22216796875	241.168212391109	3.17626953125E-05	0.222137451171875
92	0.224609375	241.192612391047	3.23089599609375E-05	0.22454833984375
93	0.22705078125	241.217012390986	3.29620361328125E-05	0.22698974609375
94	0.2294921875	241.241412390924	3.31268310546875E-05	0.22943115234375
95	0.23193359375	241.265812390862	3.328857421875E-05	0.23193359375
96	0.234375	241.290212390801	3.40057373046875E-05	0.234283447265625
97	0.23681640625	241.314612390739	3.416748046875E-05	0.236724853515625
98	0.2392578125	241.339012390678	3.4716796875E-05	0.23919677734375
99	0.24169921875	241.363412390616	3.50738525390625E-05	0.241668701171875
100	0.244140625	241.387812390554	3.52020263671875E-05	0.24407958984375
101	0.24658203125	241.412212390493	3.59954833984375E-05	0.24652099609375
102	0.2490234375	241.436612390431	3.6566162109375E-05	0.2490234375
103	0.25146484375	241.46101239037	3.64044189453125E-05	0.25140380859375
104	0.25390625	241.485412390308	3.7408447265625E-05	0.253814697265625
105	0.25634765625	241.509812390246	3.73260498046875E-05	0.256256103515625
106	0.2587890625	241.534212390185	3.756103515625E-05	0.258758544921875
107	0.26123046875	241.558612390123	3.82171630859375E-05	0.261199951171875
108	0.263671875	241.583012390062	3.9105224609375E-05	0.263641357421875
109	0.26611328125	241.60741239	3.907470703125E-05	0.2659912109375
110	0.2685546875	241.631812389938	3.9361572265625E-05	0.268463134765625
111	0.27099609375	241.656212389877	3.9794921875E-05	0.27093505859375
112	0.2734375	241.680612389815	4.06280517578125E-05	0.273406982421875
113	0.27587890625	241.705012389754	4.1339111328125E-05	0.2757568359375
114	0.2783203125	241.729412389692	4.1693115234375E-05	0.2781982421875
115	0.28076171875	241.75381238963	4.22210693359375E-05	0.280731201171875
116	0.283203125	241.778212389569	4.27642822265625E-05	0.28314208984375
117	0.28564453125	241.802612389507	4.33624267578125E-05	0.285552978515625
118	0.2880859375	241.827012389445	4.3756103515625E-05	0.28802490234375
119	0.29052734375	241.851412389384	4.4219970703125E-05	0.290557861328125
120	0.29296875	241.875812389322	4.4744873046875E-05	0.292877197265625
121	0.29541015625	241.900212389261	4.52911376953125E-05	0.29534912109375
122	0.2978515625	241.924612389199	4.5562744140625E-05	0.29779052734375
123	0.30029296875	241.949012389137	4.5977783203125E-05	0.3001708984375
124	0.302734375	241.973412389076	4.6795654296875E-05	0.30267333984375
125	0.30517578125	241.997812389014	4.75555419921875E-05	0.30499267578125
126	0.3076171875	242.022212388953	4.833984375E-05	0.3074951171875
127	0.31005859375	242.046612388891	4.88433837890625E-05	0.3099365234375
128	0.3125	242.071012388829	4.931640625E-05	0.31243896484375
129	0.31494140625	242.095412388768	4.9896240234375E-05	0.31488037109375
130	0.3173828125	242.119812388706	5.0048828125E-05	0.31732177734375
131	0.31982421875	242.144212388645	5.035400390625E-05	0.31976318359375
132	0.322265625	242.168612388583	5.108642578125E-05	0.3221435546875
133	0.32470703125	242.193012388521	5.157470703125E-05	0.324615478515625
134	0.3271484375	242.21741238846	5.2276611328125E-05	0.327117919921875
135	0.32958984375	242.241812388398	5.291748046875E-05	0.329498291015625
136	0.33203125	242.266212388337	5.3436279296875E-05	0.331939697265625
137	0.33447265625	242.290612388275	5.401611328125E-05	0.3343505859375
138	0.3369140625	242.315012388213	5.4931640625E-05	0.3367919921875
139	0.33935546875	242.339412388152	5.517578125E-05	0.3392333984375
140	0.341796875	242.36381238809	5.609130859375E-05	0.341705322265625
141	0.34423828125	242.388212388029	5.7464599609375E-05	0.3441162109375
142	0.3466796875	242.412612387967	5.712890625E-05	0.3465576171875
143	0.34912109375	242.437012387905	5.828857421875E-05	0.349029541015625
144	0.3515625	242.461412387844	5.99365234375E-05	0.351470947265625
145	0.35400390625	242.485812387782	6.0577392578125E-05	0.3538818359375
146	0.3564453125	242.510212387721	6.0516357421875E-05	0.356353759765625
147	0.35888671875	242.534612387659	6.1553955078125E-05	0.35882568359375
148	0.361328125	242.559012387597	6.26220703125E-05	0.361236572265625
149	0.36376953125	242.583412387536	6.4178466796875E-05	0.3636474609375
150	0.3662109375	242.607812387474	6.4422607421875E-05	0.3660888671875
151	0.36865234375	242.632212387413	6.524658203125E-05	0.368560791015625
152	0.37109375	242.656612387351	6.65283203125E-05	0.3709716796875
153	0.37353515625	242.681012387289	6.768798828125E-05	0.3734130859375
154	0.3759765625	242.705412387228	6.87255859375E-05	0.3758544921875
155	0.37841796875	242.729812387166	6.9671630859375E-05	0.3782958984375
156	0.380859375	242.754212387105	7.073974609375E-05	0.380767822265625
157	0.38330078125	242.778612387043	7.16552734375E-05	0.383209228515625
158	0.3857421875	242.803012386981	7.3028564453125E-05	0.385650634765625
159	0.38818359375	242.82741238692	7.403564453125E-05	0.38800048828125
160	0.390625	242.851812386858	7.5469970703125E-05	0.390533447265625
161	0.39306640625	242.876212386797	7.7117919921875E-05	0.3929443359375
162	0.3955078125	242.900612386735	7.7850341796875E-05	0.395355224609375
163	0.39794921875	242.925012386673	8.04443359375E-05	0.397796630859375
164	0.400390625	242.949412386612	8.1787109375E-05	0.4002685546875
165	0.40283203125	242.97381238655	8.30078125E-05	0.4027099609375
166	0.4052734375	242.998212386488	8.441162109375E-05	0.405120849609375
167	0.40771484375	243.022612386427	8.624267578125E-05	0.40753173828125
168	0.41015625	243.047012386365	8.8043212890625E-05	0.4100341796875
169	0.41259765625	243.071412386304	8.9935302734375E-05	0.412506103515625
170	0.4150390625	243.095812386242	9.1827392578125E-05	0.41497802734375
171	0.41748046875	243.12021238618	9.393310546875E-05	0.4173583984375
172	0.419921875	243.144612386119	9.619140625E-05	0.419769287109375
173	0.42236328125	243.169012386057	9.8052978515625E-05	0.42218017578125
174	0.4248046875	243.193412385996	0.00010009765625	0.42462158203125
175	0.42724609375	243.217812385934	0.00010223388671875	0.4271240234375
176	0.4296875	243.242212385872	0.000104217529296875	0.429534912109375
177	0.43212890625	243.266612385811	0.000106231689453125	0.431915283203125
178	0.4345703125	243.291012385749	0.000108673095703125	0.434417724609375
179	0.43701171875	243.315412385688	0.00011090087890625	0.436859130859375
180	0.439453125	243.339812385626	0.000113983154296875	0.439239501953125
181	0.44189453125	243.364212385564	0.000116119384765625	0.441741943359375
182	0.4443359375	243.388612385503	0.000118621826171875	0.444091796875
183	0.44677734375	243.413012385441	0.0001217041015625	0.446624755859375
184	0.44921875	243.43741238538	0.000125244140625	0.44903564453125
185	0.45166015625	243.461812385318	0.000127655029296875	0.451416015625
186	0.4541015625	243.486212385256	0.000131683349609375	0.453887939453125
187	0.45654296875	243.510612385195	0.00013507080078125	0.456298828125
188	0.458984375	243.535012385133	0.00013922119140625	0.458770751953125
189	0.46142578125	243.559412385072	0.000141387939453125	0.461151123046875
190	0.4638671875	243.58381238501	0.000146209716796875	0.46356201171875
191	0.46630859375	243.608212384948	0.000149444580078125	0.466064453125
192	0.46875	243.632612384887	0.000152679443359375	0.46844482421875
193	0.47119140625	243.657012384825	0.000157073974609375	0.470916748046875
194	0.4736328125	243.681412384764	0.00016107177734375	0.473358154296875
195	0.47607421875	243.705812384702	0.000165191650390625	0.475738525390625
196	0.478515625	243.73021238464	0.000169525146484375	0.4781494140625
197	0.48095703125	243.754612384579	0.000175018310546875	0.480560302734375
198	0.4833984375	243.779012384517	0.000179534912109375	0.4830322265625
199	0.48583984375	243.803412384456	0.0001846923828125	0.4854736328125
200	0.48828125	243.827812384394	0.000189178466796875	0.487884521484375
201	0.49072265625	243.852212384332	0.000195037841796875	0.490325927734375
202	0.4931640625	243.876612384271	0.000200531005859375	0.4927978515625
203	0.49560546875	243.901012384209	0.000206207275390625	0.4951171875
204	0.498046875	243.925412384148	0.000211822509765625	0.497589111328125
205	0.50048828125	243.949812384086	0.000218505859375	0.500030517578125
206	0.5029296875	243.974212384024	0.000223968505859375	0.502410888671875
207	0.50537109375	243.998612383963	0.0002305908203125	0.5048828125
208	0.5078125	244.023012383901	0.000236328125	0.507293701171875
209	0.51025390625	244.04741238384	0.000243133544921875	0.509674072265625
210	0.5126953125	244.071812383778	0.000250274658203125	0.51214599609375
211	0.51513671875	244.096212383716	0.000256744384765625	0.514556884765625
212	0.517578125	244.120612383655	0.00026409912109375	0.5169677734375
213	0.52001953125	244.145012383593	0.00027264404296875	0.5194091796875
214	0.5224609375	244.169412383531	0.000279998779296875	0.5218505859375
215	0.52490234375	244.19381238347	0.000287628173828125	0.524169921875
216	0.52734375	244.218212383408	0.000297119140625	0.526611328125
217	0.52978515625	244.242612383347	0.00030450439453125	0.52911376953125
218	0.5322265625	244.267012383285	0.0003133544921875	0.532073974609375
219	0.53466796875	244.291412383223	0.0003231201171875	0.534576416015625
220	0.537109375	244.315812383162	0.0003321533203125	0.537017822265625
221	0.53955078125	244.3402123831	0.000342376708984375	0.539459228515625
222	0.5419921875	244.364612383039	0.000351898193359375	0.5418701171875
223	0.54443359375	244.389012382977	0.0003619384765625	0.544342041015625
224	0.546875	244.413412382915	0.0003719482421875	0.5467529296875
225	0.54931640625	244.437812382854	0.000382080078125	0.549224853515625
226	0.5517578125	244.462212382792	0.000392913818359375	0.5516357421875
227	0.55419921875	244.486612382731	0.000404571533203125	0.55413818359375
228	0.556640625	244.511012382669	0.000415985107421875	0.5565185546875
229	0.55908203125	244.535412382607	0.0004267578125	0.5589599609375
230	0.5615234375	244.559812382546	0.000438690185546875	0.5614013671875
231	0.56396484375	244.584212382484	0.00045062255859375	0.5638427734375
232	0.56640625	244.608612382423	0.000463043212890625	0.56622314453125
233	0.56884765625	244.633012382361	0.00047650146484375	0.568695068359375
234	0.5712890625	244.657412382299	0.000489349365234375	0.57110595703125
235	0.57373046875	244.681812382238	0.0005029296875	0.573577880859375
236	0.576171875	244.706212382176	0.0005169677734375	0.57598876953125
237	0.57861328125	244.730612382115	0.00053131103515625	0.578460693359375
238	0.5810546875	244.755012382053	0.000545654296875	0.58087158203125
239	0.58349609375	244.779412381991	0.0005596923828125	0.583343505859375
240	0.5859375	244.80381238193	0.00057525634765625	0.58575439453125
241	0.58837890625	244.828212381868	0.00059051513671875	0.5882568359375
242	0.5908203125	244.852612381807	0.00060638427734375	0.5906982421875
243	0.59326171875	244.877012381745	0.00062255859375	0.59307861328125
244	0.595703125	244.901412381683	0.00063812255859375	0.59552001953125
245	0.59814453125	244.925812381622	0.00065521240234375	0.5980224609375
246	0.6005859375	244.95021238156	0.000672607421875	0.60040283203125
247	0.60302734375	244.974612381499	0.0006903076171875	0.60284423828125
248	0.60546875	244.999012381437	0.00070831298828125	0.605316162109375
249	0.60791015625	245.023412381375	0.000726318359375	0.607818603515625
250	0.6103515625	245.047812381314	0.0007440185546875	0.610137939453125
251	0.61279296875	245.072212381252	0.000762939453125	0.612548828125
252	0.615234375	245.096612381191	0.00078155517578125	0.614990234375
253	0.61767578125	245.121012381129	0.0008013916015625	0.61749267578125
254	0.6201171875	245.145412381067	0.000821533203125	0.619903564453125
255	0.62255859375	245.169812381006	0.00084228515625	0.622344970703125
256	0.625	245.194212380944	0.00086212158203125	0.624786376953125
257	0.62744140625	245.218612380883	0.000882568359375	0.627197265625
258	0.6298828125	245.243012380821	0.0009039306640625	0.629669189453125
259	0.63232421875	245.267412380759	0.00092498779296875	0.632110595703125
260	0.634765625	245.291812380698	0.00094696044921875	0.634521484375
261	0.63720703125	245.316212380636	0.00096923828125	0.636962890625
262	0.6396484375	245.340612380574	0.0009918212890625	0.639373779296875
263	0.64208984375	245.365012380513	0.00101409912109375	0.641845703125
264	0.64453125	245.389412380451	0.00103668212890625	0.644287109375
265	0.64697265625	245.41381238039	0.0010595703125	0.646697998046875
266	0.6494140625	245.438212380328	0.00108367919921875	0.649139404296875
267	0.65185546875	245.462612380266	0.0011083984375	0.651580810546875
268	0.654296875	245.487012380205	0.00113189697265625	0.65399169921875
269	0.65673828125	245.511412380143	0.001156005859375	0.65643310546875
270	0.6591796875	245.535812380082	0.00118194580078125	0.658905029296875
271	0.66162109375	245.56021238002	0.001207275390625	0.66131591796875
272	0.6640625	245.584612379958	0.00123382568359375	0.6636962890625
273	0.66650390625	245.609012379897	0.0012591552734375	0.666168212890625
274	0.6689453125	245.633412379835	0.00128570556640625	0.668609619140625
275	0.67138671875	245.657812379774	0.001312255859375	0.67108154296875
276	0.673828125	245.682212379712	0.00133880615234375	0.6734619140625
277	0.67626953125	245.70661237965	0.00136627197265625	0.675872802734375
278	0.6787109375	245.731012379589	0.00139373779296875	0.678375244140625
279	0.68115234375	245.755412379527	0.00142181396484375	0.680816650390625
280	0.68359375	245.779812379466	0.00144989013671875	0.6832275390625
281	0.68603515625	245.804212379404	0.0014788818359375	0.685638427734375
282	0.6884765625	245.828612379342	0.001507568359375	0.688079833984375
283	0.69091796875	245.853012379281	0.0015362548828125	0.690521240234375
284	0.693359375	245.877412379219	0.00156585693359375	0.69293212890625
285	0.69580078125	245.901812379158	0.00159637451171875	0.695343017578125
286	0.6982421875	245.926212379096	0.00162689208984375	0.69775390625
287	0.70068359375	245.950612379034	0.00165618896484375	0.700225830078125
288	0.703125	245.975012378973	0.00168731689453125	0.702606201171875
289	0.70556640625	245.999412378911	0.00171844482421875	0.705078125
290	0.7080078125	246.02381237885	0.001749267578125	0.707489013671875
291	0.71044921875	246.048212378788	0.0017816162109375	0.70989990234375
292	0.712890625	246.072612378726	0.0018133544921875	0.712310791015625
293	0.71533203125	246.097012378665	0.0018463134765625	0.71478271484375
294	0.7177734375	246.121412378603	0.001878662109375	0.71722412109375
295	0.72021484375	246.145812378542	0.00191131591796875	0.71966552734375
296	0.72265625	246.17021237848	0.00194427490234375	0.722137451171875
297	0.72509765625	246.194612378418	0.0019769287109375	0.7244873046875
298	0.7275390625	246.219012378357	0.002010498046875	0.7269287109375
299	0.72998046875	246.243412378295	0.00204437255859375	0.729400634765625
300	0.732421875	246.267812378234	0.002078857421875	0.731842041015625
301	0.73486328125	246.292212378172	0.00211334228515625	0.73419189453125
302	0.7373046875	246.31661237811	0.0021484375	0.736663818359375
303	0.73974609375	246.341012378049	0.0021832275390625	0.7391357421875
304	0.7421875	246.365412377987	0.00221954345703125	0.74151611328125
305	0.74462890625	246.389812377926	0.00225555419921875	0.74395751953125
306	0.7470703125	246.414212377864	0.00229095458984375	0.746337890625
307	0.74951171875	246.438612377802	0.00232757568359375	0.748809814453125
308	0.751953125	246.463012377741	0.0023638916015625	0.75164794921875
309	0.75439453125	246.487412377679	0.0024005126953125	0.7537841796875
310	0.7568359375	246.511812377618	0.0024371337890625	0.75592041015625
311	0.75927734375	246.536212377556	0.00247467041015625	0.758056640625
312	0.76171875	246.560612377494	0.00251190185546875	0.7611083984375
313	0.76416015625	246.585012377433	0.00254974365234375	0.76324462890625
314	0.7666015625	246.609412377371	0.00258758544921875	0.76568603515625
315	0.76904296875	246.633812377309	0.00262603759765625	0.7684326171875
316	0.771484375	246.658212377248	0.0026641845703125	0.77117919921875
317	0.77392578125	246.682612377186	0.0027032470703125	0.77362060546875
318	0.7763671875	246.707012377125	0.00274261474609375	0.7757568359375
319	0.77880859375	246.731412377063	0.00278167724609375	0.7781982421875
320	0.78125	246.755812377001	0.00282073974609375	0.78033447265625
321	0.78369140625	246.78021237694	0.00286102294921875	0.7830810546875
322	0.7861328125	246.804612376878	0.0029010009765625	0.78521728515625
323	0.78857421875	246.829012376817	0.0029412841796875	0.78826904296875
324	0.791015625	246.853412376755	0.0029815673828125	0.7904052734375
325	0.79345703125	246.877812376693	0.00302215576171875	0.79254150390625
326	0.7958984375	246.902212376632	0.0030633544921875	0.7952880859375
327	0.79833984375	246.92661237657	0.00310455322265625	0.7977294921875
328	0.80078125	246.951012376509	0.003145751953125	0.79986572265625
329	0.80322265625	246.975412376447	0.00318695068359375	0.802001953125
330	0.8056640625	246.999812376385	0.003228759765625	0.8050537109375
331	0.80810546875	247.024212376324	0.00327117919921875	0.80718994140625
332	0.810546875	247.048612376262	0.00331298828125	0.8099365234375
333	0.81298828125	247.073012376201	0.0033544921875	0.81268310546875
334	0.8154296875	247.097412376139	0.0033966064453125	0.81451416015625
335	0.81787109375	247.121812376077	0.0034393310546875	0.81756591796875
336	0.8203125	247.146212376016	0.0034820556640625	0.81939697265625
337	0.82275390625	247.170612375954	0.0035247802734375	0.8221435546875
338	0.8251953125	247.195012375893	0.00356719970703125	0.82427978515625
339	0.82763671875	247.219412375831	0.0036102294921875	0.82672119140625
340	0.830078125	247.243812375769	0.00365264892578125	0.8294677734375
341	0.83251953125	247.268212375708	0.00369537353515625	0.831298828125
342	0.8349609375	247.292612375646	0.00373809814453125	0.83465576171875
343	0.83740234375	247.317012375585	0.003780517578125	0.8367919921875
344	0.83984375	247.341412375523	0.0038226318359375	0.838623046875
345	0.84228515625	247.365812375461	0.00386505126953125	0.84136962890625
346	0.8447265625	247.3902123754	0.00390655517578125	0.8441162109375
347	0.84716796875	247.414612375338	0.00394775390625	0.84625244140625
348	0.849609375	247.439012375277	0.00398834228515625	0.8489990234375
349	0.85205078125	247.463412375215	0.00402862548828125	0.8514404296875
350	0.8544921875	247.487812375153	0.00406890869140625	0.8538818359375
351	0.85693359375	247.512212375092	0.0041082763671875	0.8563232421875
352	0.859375	247.53661237503	0.004146728515625	0.8587646484375
353	0.86181640625	247.561012374969	0.00418487548828125	0.86090087890625
354	0.8642578125	247.585412374907	0.004222412109375	0.863037109375
355	0.86669921875	247.609812374845	0.004259033203125	0.86578369140625
356	0.869140625	247.634212374784	0.00429412841796875	0.867919921875
357	0.87158203125	247.658612374722	0.00432891845703125	0.87066650390625
358	0.8740234375	247.683012374661	0.00436309814453125	0.872802734375
359	0.87646484375	247.707412374599	0.00439605712890625	0.8758544921875
360	0.87890625	247.731812374537	0.00442840576171875	0.877685546875
361	0.88134765625	247.756212374476	0.004459228515625	0.880126953125
362	0.8837890625	247.780612374414	0.00448974609375	0.88287353515625
363	0.88623046875	247.805012374352	0.00451995849609375	0.88531494140625
364	0.888671875	247.829412374291	0.00454864501953125	0.8880615234375
365	0.89111328125	247.853812374229	0.00457672119140625	0.889892578125
366	0.8935546875	247.878212374168	0.0046038818359375	0.89263916015625
367	0.89599609375	247.902612374106	0.004630126953125	0.89508056640625
368	0.8984375	247.927012374044	0.00465606689453125	0.89752197265625
369	0.90087890625	247.951412373983	0.004681396484375	0.899658203125
370	0.9033203125	247.975812373921	0.00470550537109375	0.90240478515625
371	0.90576171875	248.00021237386	0.00472930908203125	0.90484619140625
372	0.908203125	248.024612373798	0.004752197265625	0.906982421875
373	0.91064453125	248.049012373736	0.0047747802734375	0.91033935546875
374	0.9130859375	248.073412373675	0.0047967529296875	0.91278076171875
375	0.91552734375	248.097812373613	0.004818115234375	0.914306640625
376	0.91796875	248.122212373552	0.0048388671875	0.916748046875
377	0.92041015625	248.14661237349	0.00485931396484375	0.919189453125
378	0.9228515625	248.171012373428	0.004879150390625	0.92254638671875
379	0.92529296875	248.195412373367	0.004898681640625	0.9246826171875
380	0.927734375	248.219812373305	0.0049176025390625	0.92681884765625
381	0.93017578125	248.244212373244	0.0049359130859375	0.928955078125
382	0.9326171875	248.268612373182	0.0049542236328125	0.93170166015625
383	0.93505859375	248.29301237312	0.004971923828125	0.93414306640625
384	0.9375	248.317412373059	0.00498931884765625	0.93658447265625
385	0.93994140625	248.341812372997	0.00500640869140625	0.9393310546875
386	0.9423828125	248.366212372936	0.005023193359375	0.941162109375
387	0.94482421875	248.390612372874	0.0050396728515625	0.94390869140625
388	0.947265625	248.415012372812	0.0050555419921875	0.946044921875
389	0.94970703125	248.439412372751	0.0050714111328125	0.948486328125
390	0.9521484375	248.463812372689	0.005086669921875	0.95123291015625
391	0.95458984375	248.488212372628	0.0051019287109375	0.95367431640625
392	0.95703125	248.512612372566	0.00511688232421875	0.95611572265625
393	0.95947265625	248.537012372504	0.00513153076171875	0.95855712890625
394	0.9619140625	248.561412372443	0.0051458740234375	0.96099853515625
395	0.96435546875	248.585812372381	0.005159912109375	0.9637451171875
396	0.966796875	248.61021237232	0.0051739501953125	0.96649169921875
397	0.96923828125	248.634612372258	0.0051873779296875	0.9686279296875
398	0.9716796875	248.659012372196	0.0052008056640625	0.97076416015625
399	0.97412109375	248.683412372135	0.0052142333984375	0.97320556640625
400	0.9765625	248.707812372073	0.00522735595703125	0.97503662109375
401	0.97900390625	248.732212372012	0.00524017333984375	0.9783935546875
402	0.9814453125	248.75661237195	0.005252685546875	0.9808349609375
403	0.98388671875	248.781012371888	0.00526519775390625	0.9832763671875
404	0.986328125	248.805412371827	0.00527740478515625	0.98541259765625
405	0.98876953125	248.829812371765	0.00528961181640625	0.98785400390625
406	0.9912109375	248.854212371704	0.005301513671875	0.9906005859375
407	0.99365234375	248.878612371642	0.00531341552734375	0.99334716796875
408	0.99609375	248.90301237158	0.00532501220703125	0.994873046875
409	0.99853515625	248.927412371519	0.0053363037109375	0.997314453125
410	1.0009765625	248.951812371457	0.005347900390625	1.00006103515625
411	1.00341796875	248.976212371395	0.00535888671875	1.00250244140625
412	1.005859375	249.000612371334	0.005369873046875	1.004638671875
413	1.00830078125	249.025012371272	0.005380859375	1.00799560546875
414	1.0107421875	249.049412371211	0.00539154052734375	1.00982666015625
415	1.01318359375	249.073812371149	0.00540191650390625	1.01226806640625
416	1.015625	249.098212371087	0.00541259765625	1.014404296875
417	1.01806640625	249.122612371026	0.0054229736328125	1.016845703125
418	1.0205078125	249.147012370964	0.005433349609375	1.0198974609375
419	1.02294921875	249.171412370903	0.00544342041015625	1.02203369140625
420	1.025390625	249.195812370841	0.0054534912109375	1.02447509765625
421	1.02783203125	249.220212370779	0.0054632568359375	1.0272216796875
422	1.0302734375	249.244612370718	0.0054730224609375	1.0296630859375
423	1.03271484375	249.269012370656	0.0054827880859375	1.0321044921875
424	1.03515625	249.293412370595	0.00549224853515625	1.0345458984375
425	1.03759765625	249.317812370533	0.005501708984375	1.03668212890625
426	1.0400390625	249.342212370471	0.00551116943359375	1.03912353515625
427	1.04248046875	249.36661237041	0.00552032470703125	1.041259765625
428	1.044921875	249.391012370348	0.00552947998046875	1.04400634765625
429	1.04736328125	249.415412370287	0.00553863525390625	1.046142578125
430	1.0498046875	249.439812370225	0.0055474853515625	1.048583984375
431	1.05224609375	249.464212370163	0.00555633544921875	1.05133056640625
432	1.0546875	249.488612370102	0.005565185546875	1.05377197265625
433	1.05712890625	249.51301237004	0.00557403564453125	1.055908203125
434	1.0595703125	249.537412369979	0.00558258056640625	1.05865478515625
435	1.06201171875	249.561812369917	0.00559112548828125	1.0614013671875
436	1.064453125	249.586212369855	0.00559967041015625	1.06353759765625
437	1.06689453125	249.610612369794	0.00560821533203125	1.065673828125
438	1.0693359375	249.635012369732	0.005616455078125	1.06842041015625
439	1.07177734375	249.659412369671	0.00562469482421875	1.07086181640625
440	1.07421875	249.683812369609	0.00563262939453125	1.0736083984375
441	1.07666015625	249.708212369547	0.005640869140625	1.0760498046875
442	1.0791015625	249.732612369486	0.00564910888671875	1.0784912109375
443	1.08154296875	249.757012369424	0.00565704345703125	1.08062744140625
444	1.083984375	249.781412369363	0.0056646728515625	1.08306884765625
445	1.08642578125	249.805812369301	0.005672607421875	1.08551025390625
446	1.0888671875	249.830212369239	0.0056805419921875	1.08795166015625
447	1.09130859375	249.854612369178	0.00568817138671875	1.090087890625
448	1.09375	249.879012369116	0.00569580078125	1.0931396484375
449	1.09619140625	249.903412369055	0.00570343017578125	1.0955810546875
450	1.0986328125	249.927812368993	0.00571075439453125	1.097412109375
451	1.10107421875	249.952212368931	0.0057183837890625	1.1004638671875
452	1.103515625	249.97661236887	0.0057257080078125	1.102294921875
453	1.10595703125	250.001012368808	0.0057330322265625	1.1053466796875
454	1.1083984375	250.025412368747	0.0057403564453125	1.107177734375
455	1.11083984375	250.049812368685	0.0057476806640625	1.109619140625
456	1.11328125	250.074212368623	0.00575469970703125	1.11236572265625
457	1.11572265625	250.098612368562	0.00576202392578125	1.11480712890625
458	1.1181640625	250.1230123685	0.00576904296875	1.116943359375
459	1.12060546875	250.147412368438	0.00577606201171875	1.11968994140625
460	1.123046875	250.171812368377	0.00578277587890625	1.12152099609375
461	1.12548828125	250.196212368315	0.005789794921875	1.124267578125
462	1.1279296875	250.220612368254	0.0057965087890625	1.12701416015625
463	1.13037109375	250.245012368192	0.00580352783203125	1.1297607421875
464	1.1328125	250.26941236813	0.00581024169921875	1.13128662109375
465	1.13525390625	250.293812368069	0.00581695556640625	1.134033203125
466	1.1376953125	250.318212368007	0.00582366943359375	1.136474609375
467	1.14013671875	250.342612367946	0.00583038330078125	1.13922119140625
468	1.142578125	250.367012367884	0.0058367919921875	1.141357421875
469	1.14501953125	250.391412367822	0.005843505859375	1.143798828125
470	1.1474609375	250.415812367761	0.00584991455078125	1.14715576171875
471	1.14990234375	250.440212367699	0.0058563232421875	1.14898681640625
472	1.15234375	250.464612367638	0.00586273193359375	1.15142822265625
473	1.15478515625	250.489012367576	0.005869140625	1.15386962890625
474	1.1572265625	250.513412367514	0.00587554931640625	1.15631103515625
475	1.15966796875	250.537812367453	0.00588165283203125	1.15814208984375
476	1.162109375	250.562212367391	0.0058880615234375	1.160888671875
477	1.16455078125	250.58661236733	0.0058941650390625	1.16363525390625
478	1.1669921875	250.611012367268	0.00590057373046875	1.165771484375
479	1.16943359375	250.635412367206	0.00590667724609375	1.16851806640625
480	1.171875	250.659812367145	0.00591278076171875	1.17095947265625
481	1.17431640625	250.684212367083	0.00591888427734375	1.17340087890625
482	1.1767578125	250.708612367022	0.0059246826171875	1.17584228515625
483	1.17919921875	250.73301236696	0.0059307861328125	1.17767333984375
484	1.181640625	250.757412366898	0.00593658447265625	1.18011474609375
485	1.18408203125	250.781812366837	0.00594268798828125	1.182861328125
486	1.1865234375	250.806212366775	0.005948486328125	1.18560791015625
487	1.18896484375	250.830612366714	0.00595428466796875	1.18804931640625
488	1.19140625	250.855012366652	0.00596038818359375	1.19049072265625
489	1.19384765625	250.87941236659	0.0059661865234375	1.19293212890625
490	1.1962890625	250.903812366529	0.00597198486328125	1.19537353515625
491	1.19873046875	250.928212366467	0.005977783203125	1.19720458984375
492	1.201171875	250.952612366406	0.0059832763671875	1.199951171875
493	1.19873046875	250.977012366344	0.00597198486328125	1.19720458984375
494	1.1962890625	251.001412366282	0.00596038818359375	1.195068359375
495	1.19384765625	251.025812366221	0.005948486328125	1.19293212890625
496	1.19140625	251.050212366159	0.00593658447265625	1.18988037109375
497	1.18896484375	251.074612366098	0.0059246826171875	1.187744140625
498	1.1865234375	251.099012366036	0.00591278076171875	1.185302734375
499	1.18408203125	251.123412365974	0.00590057373046875	1.18255615234375
500	1.181640625	251.147812365913	0.0058880615234375	1.1810302734375
501	1.17919921875	251.172212365851	0.0058758544921875	1.177978515625
502	1.1767578125	251.19661236579	0.00586334228515625	1.175537109375
503	1.17431640625	251.221012365728	0.00585052490234375	1.173095703125
504	1.171875	251.245412365666	0.00583770751953125	1.17095947265625
505	1.16943359375	251.269812365605	0.0058245849609375	1.1688232421875
506	1.1669921875	251.294212365543	0.00581146240234375	1.16607666015625
507	1.16455078125	251.318612365481	0.00579803466796875	1.16363525390625
508	1.162109375	251.34301236542	0.00578460693359375	1.16119384765625
509	1.15966796875	251.367412365358	0.0057708740234375	1.158447265625
510	1.1572265625	251.391812365297	0.00575714111328125	1.15631103515625
511	1.15478515625	251.416212365235	0.00574310302734375	1.153564453125
512	1.15234375	251.440612365173	0.005728759765625	1.151123046875
513	1.14990234375	251.465012365112	0.005714111328125	1.14898681640625
514	1.1474609375	251.48941236505	0.005699462890625	1.14593505859375
515	1.14501953125	251.513812364989	0.005684814453125	1.14410400390625
516	1.142578125	251.538212364927	0.0056695556640625	1.14105224609375
517	1.14013671875	251.562612364865	0.005654296875	1.138916015625
518	1.1376953125	251.587012364804	0.00563873291015625	1.1370849609375
519	1.13525390625	251.611412364742	0.00562286376953125	1.13433837890625
520	1.1328125	251.635812364681	0.00560699462890625	1.13128662109375
521	1.13037109375	251.660212364619	0.00559051513671875	1.12945556640625
522	1.1279296875	251.684612364557	0.00557403564453125	1.12701416015625
523	1.12548828125	251.709012364496	0.0055572509765625	1.124267578125
524	1.123046875	251.733412364434	0.00553985595703125	1.12213134765625
525	1.12060546875	251.757812364373	0.0055224609375	1.11968994140625
526	1.1181640625	251.782212364311	0.0055047607421875	1.11724853515625
527	1.11572265625	251.806612364249	0.0054864501953125	1.114501953125
528	1.11328125	251.831012364188	0.00546783447265625	1.11236572265625
529	1.11083984375	251.855412364126	0.00544921875	1.1102294921875
530	1.1083984375	251.879812364065	0.0054296875	1.10748291015625
531	1.10595703125	251.904212364003	0.00541015625	1.10504150390625
532	1.103515625	251.928612363941	0.0053900146484375	1.10260009765625
533	1.10107421875	251.95301236388	0.00536956787109375	1.099853515625
534	1.0986328125	251.977412363818	0.0053485107421875	1.09771728515625
535	1.09619140625	252.001812363757	0.00532684326171875	1.09527587890625
536	1.09375	252.026212363695	0.0053045654296875	1.09375
537	1.09130859375	252.050612363633	0.005281982421875	1.090087890625
538	1.0888671875	252.075012363572	0.0052587890625	1.087646484375
539	1.08642578125	252.09941236351	0.0052349853515625	1.085205078125
540	1.083984375	252.123812363449	0.00521026611328125	1.0833740234375
541	1.08154296875	252.148212363387	0.0051849365234375	1.080322265625
542	1.0791015625	252.172612363325	0.00515899658203125	1.0784912109375
543	1.07666015625	252.197012363264	0.0051324462890625	1.075439453125
544	1.07421875	252.221412363202	0.00510498046875	1.0736083984375
545	1.07177734375	252.245812363141	0.0050762939453125	1.070556640625
546	1.0693359375	252.270212363079	0.00504669189453125	1.068115234375
547	1.06689453125	252.294612363017	0.00501617431640625	1.06597900390625
548	1.064453125	252.319012362956	0.00498443603515625	1.06353759765625
549	1.06201171875	252.343412362894	0.0049517822265625	1.06109619140625
550	1.0595703125	252.367812362833	0.0049169921875	1.0589599609375
551	1.05712890625	252.392212362771	0.00488128662109375	1.055908203125
552	1.0546875	252.416612362709	0.00484405517578125	1.05377197265625
553	1.05224609375	252.441012362648	0.0048052978515625	1.0516357421875
554	1.0498046875	252.465412362586	0.004764404296875	1.048583984375
555	1.04736328125	252.489812362525	0.00472137451171875	1.04583740234375
556	1.044921875	252.514212362463	0.004676513671875	1.04400634765625
557	1.04248046875	252.538612362401	0.00462982177734375	1.04156494140625
558	1.0400390625	252.56301236234	0.004580078125	1.03912353515625
559	1.03759765625	252.587412362278	0.004527587890625	1.03668212890625
560	1.03515625	252.611812362216	0.00447296142578125	1.0345458984375
561	1.03271484375	252.636212362155	0.004415283203125	1.0321044921875
562	1.0302734375	252.660612362093	0.0043548583984375	1.029052734375
563	1.02783203125	252.685012362032	0.00429168701171875	1.0272216796875
564	1.025390625	252.70941236197	0.00422515869140625	1.02447509765625
565	1.02294921875	252.733812361908	0.0041571044921875	1.02264404296875
566	1.0205078125	252.758212361847	0.00408660888671875	1.01959228515625
567	1.01806640625	252.782612361785	0.00401458740234375	1.01715087890625
568	1.015625	252.807012361724	0.0039404296875	1.01470947265625
569	1.01318359375	252.831412361662	0.00386474609375	1.01226806640625
570	1.0107421875	252.8558123616	0.0037884521484375	1.0101318359375
571	1.00830078125	252.880212361539	0.0037127685546875	1.0076904296875
572	1.005859375	252.904612361477	0.0036358642578125	1.00494384765625
573	1.00341796875	252.929012361416	0.00355987548828125	1.0028076171875
574	1.0009765625	252.953412361354	0.00348388671875	1.00067138671875
575	0.99853515625	252.977812361292	0.00340850830078125	0.99761962890625
576	0.99609375	253.002212361231	0.00333282470703125	0.9954833984375
577	0.99365234375	253.026612361169	0.0032586669921875	0.992431640625
578	0.9912109375	253.051012361108	0.003184814453125	0.9893798828125
579	0.98876953125	253.075412361046	0.0031121826171875	0.9881591796875
580	0.986328125	253.099812360984	0.00303955078125	0.9857177734375
581	0.98388671875	253.124212360923	0.00296905517578125	0.98358154296875
582	0.9814453125	253.148612360861	0.00289886474609375	0.98052978515625
583	0.97900390625	253.1730123608	0.00282989501953125	0.97808837890625
584	0.9765625	253.197412360738	0.00276092529296875	0.97564697265625
585	0.97412109375	253.221812360676	0.00269439697265625	0.97320556640625
586	0.9716796875	253.246212360615	0.00262786865234375	0.97137451171875
587	0.96923828125	253.270612360553	0.00256317138671875	0.9686279296875
588	0.966796875	253.295012360492	0.0024993896484375	0.96649169921875
589	0.96435546875	253.31941236043	0.0024371337890625	0.96343994140625
590	0.9619140625	253.343812360368	0.0023748779296875	0.96038818359375
591	0.95947265625	253.368212360307	0.00231475830078125	0.95855712890625
592	0.95703125	253.392612360245	0.00225494384765625	0.95611572265625
593	0.95458984375	253.417012360184	0.0021978759765625	0.953369140625
594	0.9521484375	253.441412360122	0.002139892578125	0.9521484375
595	0.94970703125	253.46581236006	0.0020843505859375	0.94879150390625
596	0.947265625	253.490212359999	0.0020294189453125	0.9466552734375
597	0.94482421875	253.514612359937	0.00197509765625	0.94390869140625
598	0.9423828125	253.539012359876	0.001923828125	0.94146728515625
599	0.93994140625	253.563412359814	0.0018719482421875	0.93902587890625
600	0.9375	253.587812359752	0.00182159423828125	0.93658447265625
601	0.93505859375	253.612212359691	0.0017730712890625	0.93414306640625
602	0.9326171875	253.636612359629	0.0017254638671875	0.93170166015625
603	0.93017578125	253.661012359568	0.0016790771484375	0.9295654296875
604	0.927734375	253.685412359506	0.00163360595703125	0.92681884765625
605	0.92529296875	253.709812359444	0.00158966064453125	0.92376708984375
606	0.9228515625	253.734212359383	0.0015460205078125	0.921630859375
607	0.92041015625	253.758612359321	0.00150390625	0.91949462890625
608	0.91796875	253.783012359259	0.0014642333984375	0.91705322265625
609	0.91552734375	253.807412359198	0.0014239501953125	0.91461181640625
610	0.9130859375	253.831812359136	0.00138519287109375	0.9124755859375
611	0.91064453125	253.856212359075	0.0013482666015625	0.9100341796875
612	0.908203125	253.880612359013	0.00131195068359375	0.90728759765625
613	0.90576171875	253.905012358951	0.00127716064453125	0.90484619140625
614	0.9033203125	253.92941235889	0.00124298095703125	0.9027099609375
615	0.90087890625	253.953812358828	0.00120880126953125	0.899658203125
616	0.8984375	253.978212358767	0.00117767333984375	0.8978271484375
617	0.89599609375	254.002612358705	0.0011456298828125	0.8953857421875
618	0.8935546875	254.027012358643	0.0011163330078125	0.89263916015625
619	0.89111328125	254.051412358582	0.00108642578125	0.88958740234375
620	0.888671875	254.07581235852	0.00105865478515625	0.88775634765625
621	0.88623046875	254.100212358459	0.00103179931640625	0.88531494140625
622	0.8837890625	254.124612358397	0.001005859375	0.882568359375
623	0.88134765625	254.149012358335	0.00098114013671875	0.88043212890625
624	0.87890625	254.173412358274	0.000955810546875	0.8782958984375
625	0.87646484375	254.197812358212	0.0009307861328125	0.875244140625
626	0.8740234375	254.222212358151	0.000908203125	0.87310791015625
627	0.87158203125	254.246612358089	0.00088592529296875	0.87066650390625
628	0.869140625	254.271012358027	0.00086456298828125	0.867919921875
629	0.86669921875	254.295412357966	0.0008428955078125	0.86578369140625
630	0.8642578125	254.319812357904	0.00082366943359375	0.863037109375
631	0.86181640625	254.344212357843	0.00080322265625	0.8612060546875
632	0.859375	254.368612357781	0.0007843017578125	0.8587646484375
633	0.85693359375	254.393012357719	0.00076568603515625	0.855712890625
634	0.8544921875	254.417412357658	0.000748291015625	0.853271484375
635	0.85205078125	254.441812357596	0.000731201171875	0.85113525390625
636	0.849609375	254.466212357535	0.00071502685546875	0.84930419921875
637	0.84716796875	254.490612357473	0.00069854736328125	0.84686279296875
638	0.8447265625	254.515012357411	0.00068389892578125	0.843505859375
639	0.84228515625	254.53941235735	0.0006695556640625	0.84136962890625
640	0.83984375	254.563812357288	0.00065460205078125	0.83892822265625
641	0.83740234375	254.588212357227	0.000640869140625	0.836181640625
642	0.8349609375	254.612612357165	0.00062744140625	0.833740234375
643	0.83251953125	254.637012357103	0.000614013671875	0.831298828125
644	0.830078125	254.661412357042	0.00060089111328125	0.8294677734375
645	0.82763671875	254.68581235698	0.00058990478515625	0.826416015625
646	0.8251953125	254.710212356919	0.00057830810546875	0.82427978515625
647	0.82275390625	254.734612356857	0.0005670166015625	0.82183837890625
648	0.8203125	254.759012356795	0.00055511474609375	0.82000732421875
649	0.81787109375	254.783412356734	0.00054473876953125	0.81756591796875
650	0.8154296875	254.807812356672	0.0005352783203125	0.8148193359375
651	0.81298828125	254.832212356611	0.00052490234375	0.81207275390625
652	0.810546875	254.856612356549	0.0005145263671875	0.8099365234375
653	0.80810546875	254.881012356487	0.00050384521484375	0.8074951171875
654	0.8056640625	254.905412356426	0.000493621826171875	0.80474853515625
655	0.80322265625	254.929812356364	0.00048480224609375	0.802001953125
656	0.80078125	254.954212356302	0.000475738525390625	0.8001708984375
657	0.79833984375	254.978612356241	0.00046734619140625	0.79681396484375
658	0.7958984375	255.003012356179	0.000458740234375	0.794677734375
659	0.79345703125	255.027412356118	0.00044952392578125	0.79254150390625
660	0.791015625	255.051812356056	0.0004407958984375	0.79010009765625
661	0.78857421875	255.076212355994	0.0004329833984375	0.78765869140625
662	0.7861328125	255.100612355933	0.000424072265625	0.78521728515625
663	0.78369140625	255.125012355871	0.000416900634765625	0.7830810546875
664	0.78125	255.14941235581	0.00040936279296875	0.7806396484375
665	0.77880859375	255.173812355748	0.00040325927734375	0.7781982421875
666	0.7763671875	255.198212355686	0.000395355224609375	0.7757568359375
667	0.77392578125	255.222612355625	0.000388397216796875	0.7733154296875
668	0.771484375	255.247012355563	0.00038189697265625	0.7708740234375
669	0.76904296875	255.271412355502	0.000375732421875	0.76812744140625
670	0.7666015625	255.29581235544	0.000369140625	0.76568603515625
671	0.76416015625	255.320212355378	0.00036297607421875	0.76324462890625
672	0.76171875	255.344612355317	0.000356109619140625	0.76080322265625
673	0.75927734375	255.369012355255	0.00034991455078125	0.75927734375
674	0.7568359375	255.393412355194	0.0003438720703125	0.7562255859375
675	0.75439453125	255.417812355132	0.000338134765625	0.75439453125
676	0.751953125	255.44221235507	0.00033245849609375	0.75103759765625
677	0.74951171875	255.466612355009	0.000326904296875	0.74932861328125
678	0.7470703125	255.491012354947	0.000321441650390625	0.746856689453125
679	0.74462890625	255.515412354886	0.000317230224609375	0.744415283203125
680	0.7421875	255.539812354824	0.000311492919921875	0.741943359375
681	0.73974609375	255.564212354762	0.000306854248046875	0.739532470703125
682	0.7373046875	255.588612354701	0.0003004150390625	0.73712158203125
683	0.73486328125	255.613012354639	0.0002955322265625	0.734619140625
684	0.732421875	255.637412354578	0.000291961669921875	0.73223876953125
685	0.72998046875	255.661812354516	0.000286865234375	0.729766845703125
686	0.7275390625	255.686212354454	0.00028173828125	0.727294921875
687	0.72509765625	255.710612354393	0.000277374267578125	0.72491455078125
688	0.72265625	255.735012354331	0.0002740478515625	0.72247314453125
689	0.72021484375	255.75941235427	0.00026995849609375	0.72003173828125
690	0.7177734375	255.783812354208	0.00026605224609375	0.7176513671875
691	0.71533203125	255.808212354146	0.0002607421875	0.71514892578125
692	0.712890625	255.832612354085	0.000256561279296875	0.71270751953125
693	0.71044921875	255.857012354023	0.000251922607421875	0.710296630859375
694	0.7080078125	255.881412353962	0.0002484130859375	0.70782470703125
695	0.70556640625	255.9058123539	0.000244232177734375	0.70538330078125
696	0.703125	255.930212353838	0.0002398681640625	0.702911376953125
697	0.70068359375	255.954612353777	0.000236328125	0.700469970703125
698	0.6982421875	255.979012353715	0.00023309326171875	0.697998046875
699	0.69580078125	256.003412353654	0.0002293701171875	0.695556640625
700	0.693359375	256.027812353592	0.00022491455078125	0.693206787109375
701	0.69091796875	256.05221235353	0.000221282958984375	0.6907958984375
702	0.6884765625	256.076612353469	0.00021783447265625	0.68829345703125
703	0.68603515625	256.101012353407	0.000215576171875	0.68585205078125
704	0.68359375	256.125412353345	0.000211212158203125	0.6834716796875
705	0.68115234375	256.149812353284	0.00020831298828125	0.6810302734375
706	0.6787109375	256.174212353222	0.000205169677734375	0.678619384765625
707	0.67626953125	256.198612353161	0.000202117919921875	0.6761474609375
708	0.673828125	256.223012353099	0.00020013427734375	0.6737060546875
709	0.67138671875	256.247412353037	0.000197662353515625	0.6712646484375
710	0.6689453125	256.271812352976	0.000193634033203125	0.6688232421875
711	0.66650390625	256.296212352914	0.0001905517578125	0.6663818359375
712	0.6640625	256.320612352853	0.000187347412109375	0.663970947265625
713	0.66162109375	256.345012352791	0.000183685302734375	0.6614990234375
714	0.6591796875	256.369412352729	0.000181732177734375	0.6590576171875
715	0.65673828125	256.393812352668	0.000177947998046875	0.656646728515625
716	0.654296875	256.418212352606	0.000175628662109375	0.65423583984375
717	0.65185546875	256.442612352545	0.00017333984375	0.651763916015625
718	0.6494140625	256.467012352483	0.000169830322265625	0.649322509765625
719	0.64697265625	256.491412352421	0.000168243408203125	0.64691162109375
720	0.64453125	256.51581235236	0.0001656494140625	0.6444091796875
721	0.64208984375	256.540212352298	0.000163330078125	0.6419677734375
722	0.6396484375	256.564612352237	0.000160369873046875	0.639556884765625
723	0.63720703125	256.589012352175	0.000157958984375	0.6370849609375
724	0.634765625	256.613412352113	0.000156951904296875	0.63470458984375
725	0.63232421875	256.637812352052	0.0001544189453125	0.632232666015625
726	0.6298828125	256.66221235199	0.000150970458984375	0.629852294921875
727	0.62744140625	256.686612351929	0.0001494140625	0.627349853515625
728	0.625	256.711012351867	0.00014581298828125	0.624908447265625
729	0.62255859375	256.735412351805	0.00014410400390625	0.6224365234375
730	0.6201171875	256.759812351744	0.000141265869140625	0.6199951171875
731	0.61767578125	256.784212351682	0.00013916015625	0.61761474609375
732	0.615234375	256.808612351621	0.000136383056640625	0.615142822265625
733	0.61279296875	256.833012351559	0.000134552001953125	0.61273193359375
734	0.6103515625	256.857412351497	0.000133697509765625	0.610198974609375
735	0.60791015625	256.881812351436	0.000131805419921875	0.60784912109375
736	0.60546875	256.906212351374	0.00012982177734375	0.605377197265625
737	0.60302734375	256.930612351313	0.000127960205078125	0.602996826171875
738	0.6005859375	256.955012351251	0.0001259765625	0.600494384765625
739	0.59814453125	256.979412351189	0.000124420166015625	0.59814453125
740	0.595703125	257.003812351128	0.000122802734375	0.59564208984375
741	0.59326171875	257.028212351066	0.0001204833984375	0.593170166015625
742	0.5908203125	257.052612351005	0.0001192626953125	0.59075927734375
743	0.58837890625	257.077012350943	0.000118072509765625	0.588287353515625
744	0.5859375	257.101412350881	0.000116729736328125	0.58587646484375
745	0.58349609375	257.12581235082	0.00011376953125	0.5833740234375
746	0.5810546875	257.150212350758	0.00011236572265625	0.5809326171875
747	0.57861328125	257.174612350697	0.000111724853515625	0.57855224609375
748	0.576171875	257.199012350635	0.000110137939453125	0.576080322265625
749	0.57373046875	257.223412350573	0.000109161376953125	0.573638916015625
750	0.5712890625	257.247812350512	0.0001077880859375	0.57122802734375
751	0.56884765625	257.27221235045	0.000106353759765625	0.56878662109375
752	0.56640625	257.296612350389	0.00010498046875	0.566375732421875
753	0.56396484375	257.321012350327	0.000104034423828125	0.56396484375
754	0.5615234375	257.345412350265	0.000103515625	0.56146240234375
755	0.55908203125	257.369812350204	0.000101776123046875	0.558990478515625
756	0.556640625	257.394212350142	0.000100830078125	0.556549072265625
757	0.55419921875	257.41861235008	9.8419189453125E-05	0.55413818359375
758	0.5517578125	257.443012350019	9.771728515625E-05	0.551727294921875
759	0.54931640625	257.467412349957	9.716796875E-05	0.54925537109375
760	0.546875	257.491812349896	9.68017578125E-05	0.546844482421875
761	0.54443359375	257.516212349834	9.4512939453125E-05	0.54437255859375
762	0.5419921875	257.540612349772	9.3597412109375E-05	0.541748046875
763	0.53955078125	257.565012349711	9.1644287109375E-05	0.539337158203125
764	0.537109375	257.589412349649	9.1522216796875E-05	0.53692626953125
765	0.53466796875	257.613812349588	8.9324951171875E-05	0.534515380859375
766	0.5322265625	257.638212349526	8.856201171875E-05	0.532073974609375
767	0.52978515625	257.662612349464	8.807373046875E-05	0.52960205078125
768	0.52734375	257.687012349403	8.685302734375E-05	0.52716064453125
769	0.52490234375	257.711412349341	8.642578125E-05	0.524688720703125
770	0.5224609375	257.73581234928	8.5479736328125E-05	0.5223388671875
771	0.52001953125	257.760212349218	8.355712890625E-05	0.51983642578125
772	0.517578125	257.784612349156	8.3221435546875E-05	0.517425537109375
773	0.51513671875	257.809012349095	8.1817626953125E-05	0.514984130859375
774	0.5126953125	257.833412349033	8.04443359375E-05	0.512542724609375
775	0.51025390625	257.857812348972	8.0352783203125E-05	0.510101318359375
776	0.5078125	257.88221234891	7.989501953125E-05	0.507659912109375
777	0.50537109375	257.906612348848	7.8704833984375E-05	0.505218505859375
778	0.5029296875	257.931012348787	7.7484130859375E-05	0.502777099609375
779	0.50048828125	257.955412348725	7.720947265625E-05	0.50030517578125
780	0.498046875	257.979812348664	7.5958251953125E-05	0.4979248046875
781	0.49560546875	258.004212348602	7.4859619140625E-05	0.4954833984375
782	0.4931640625	258.02861234854	7.4676513671875E-05	0.493011474609375
783	0.49072265625	258.053012348479	7.38525390625E-05	0.4906005859375
784	0.48828125	258.077412348417	7.342529296875E-05	0.488128662109375
785	0.48583984375	258.101812348356	7.269287109375E-05	0.485687255859375
786	0.4833984375	258.126212348294	7.18994140625E-05	0.4832763671875
787	0.48095703125	258.150612348232	7.1197509765625E-05	0.480804443359375
788	0.478515625	258.175012348171	7.0159912109375E-05	0.478363037109375
789	0.47607421875	258.199412348109	6.99462890625E-05	0.4759521484375
790	0.4736328125	258.223812348048	6.9793701171875E-05	0.473480224609375
791	0.47119140625	258.248212347986	6.8695068359375E-05	0.471038818359375
792	0.46875	258.272612347924	6.781005859375E-05	0.46856689453125
793	0.46630859375	258.297012347863	6.787109375E-05	0.466217041015625
794	0.4638671875	258.321412347801	6.6741943359375E-05	0.4637451171875
795	0.46142578125	258.34581234774	6.622314453125E-05	0.4613037109375
796	0.458984375	258.370212347678	6.561279296875E-05	0.458831787109375
797	0.45654296875	258.394612347616	6.53076171875E-05	0.456451416015625
798	0.4541015625	258.419012347555	6.5093994140625E-05	0.4539794921875
799	0.45166015625	258.443412347493	6.4727783203125E-05	0.4515380859375
800	0.44921875	258.467812347432	6.365966796875E-05	0.449127197265625
801	0.44677734375	258.49221234737	6.341552734375E-05	0.446624755859375
802	0.4443359375	258.516612347308	6.317138671875E-05	0.44415283203125
803	0.44189453125	258.541012347247	6.2225341796875E-05	0.441802978515625
804	0.439453125	258.565412347185	6.1309814453125E-05	0.439300537109375
805	0.43701171875	258.589812347123	6.1187744140625E-05	0.436920166015625
806	0.4345703125	258.614212347062	6.09130859375E-05	0.434417724609375
807	0.43212890625	258.638612347	6.0272216796875E-05	0.4320068359375
808	0.4296875	258.663012346939	6.0028076171875E-05	0.42962646484375
809	0.42724609375	258.687412346877	5.9600830078125E-05	0.4271240234375
810	0.4248046875	258.711812346815	5.8868408203125E-05	0.424713134765625
811	0.42236328125	258.736212346754	5.8319091796875E-05	0.4222412109375
812	0.419921875	258.760612346692	5.712890625E-05	0.419830322265625
813	0.41748046875	258.785012346631	5.706787109375E-05	0.417388916015625
814	0.4150390625	258.809412346569	5.6488037109375E-05	0.4149169921875
815	0.41259765625	258.833812346507	5.615234375E-05	0.4124755859375
816	0.41015625	258.858212346446	5.5145263671875E-05	0.4100341796875
817	0.40771484375	258.882612346384	5.4718017578125E-05	0.407623291015625
818	0.4052734375	258.907012346323	5.4901123046875E-05	0.405181884765625
819	0.40283203125	258.931412346261	5.4443359375E-05	0.4027099609375
820	0.400390625	258.955812346199	5.4046630859375E-05	0.400299072265625
821	0.39794921875	258.980212346138	5.3192138671875E-05	0.397857666015625
822	0.3955078125	259.004612346076	5.3314208984375E-05	0.39544677734375
823	0.39306640625	259.029012346015	5.26123046875E-05	0.3929443359375
824	0.390625	259.053412345953	5.17578125E-05	0.3905029296875
825	0.38818359375	259.077812345891	5.21240234375E-05	0.388092041015625
826	0.3857421875	259.10221234583	5.1727294921875E-05	0.385650634765625
827	0.38330078125	259.126612345768	5.078125E-05	0.383148193359375
828	0.380859375	259.151012345707	5.01708984375E-05	0.380706787109375
829	0.37841796875	259.175412345645	5.0018310546875E-05	0.378387451171875
830	0.3759765625	259.199812345583	4.94720458984375E-05	0.375885009765625
831	0.37353515625	259.224212345522	4.87640380859375E-05	0.37347412109375
832	0.37109375	259.24861234546	4.8651123046875E-05	0.3709716796875
833	0.36865234375	259.273012345399	4.85687255859375E-05	0.368499755859375
834	0.3662109375	259.297412345337	4.80255126953125E-05	0.36614990234375
835	0.36376953125	259.321812345275	4.80865478515625E-05	0.36370849609375
836	0.361328125	259.346212345214	4.74578857421875E-05	0.361236572265625
837	0.35888671875	259.370612345152	4.64599609375E-05	0.358856201171875
838	0.3564453125	259.395012345091	4.60601806640625E-05	0.35638427734375
839	0.35400390625	259.419412345029	4.6417236328125E-05	0.353912353515625
840	0.3515625	259.443812344967	4.64019775390625E-05	0.35150146484375
841	0.34912109375	259.468212344906	4.53857421875E-05	0.34906005859375
842	0.3466796875	259.492612344844	4.47845458984375E-05	0.3465576171875
843	0.34423828125	259.517012344783	4.456787109375E-05	0.344146728515625
844	0.341796875	259.541412344721	4.442138671875E-05	0.341766357421875
845	0.33935546875	259.565812344659	4.4342041015625E-05	0.339263916015625
846	0.3369140625	259.590212344598	4.32861328125E-05	0.33685302734375
847	0.33447265625	259.614612344536	4.339599609375E-05	0.334381103515625
848	0.33203125	259.639012344475	4.2572021484375E-05	0.331939697265625
849	0.32958984375	259.663412344413	4.2413330078125E-05	0.32952880859375
850	0.3271484375	259.687812344351	4.23980712890625E-05	0.327056884765625
851	0.32470703125	259.71221234429	4.19921875E-05	0.32470703125
852	0.322265625	259.736612344228	4.210205078125E-05	0.3221435546875
853	0.31982421875	259.761012344166	4.1656494140625E-05	0.319793701171875
854	0.3173828125	259.785412344105	4.14093017578125E-05	0.317352294921875
855	0.31494140625	259.809812344043	4.07684326171875E-05	0.314849853515625
856	0.3125	259.834212343982	4.0625E-05	0.312469482421875
857	0.31005859375	259.85861234392	3.924560546875E-05	0.3099365234375
858	0.3076171875	259.883012343858	3.8922119140625E-05	0.307525634765625
859	0.30517578125	259.907412343797	3.914794921875E-05	0.30511474609375
860	0.302734375	259.931812343735	3.90716552734375E-05	0.302642822265625
861	0.30029296875	259.956212343674	3.87298583984375E-05	0.30023193359375
862	0.2978515625	259.980612343612	3.82232666015625E-05	0.297821044921875
863	0.29541015625	260.00501234355	3.76556396484375E-05	0.29541015625
864	0.29296875	260.029412343489	3.7646484375E-05	0.292938232421875
865	0.29052734375	260.053812343427	3.701171875E-05	0.29046630859375
866	0.2880859375	260.078212343366	3.7005615234375E-05	0.28802490234375
867	0.28564453125	260.102612343304	3.6492919921875E-05	0.285614013671875
868	0.283203125	260.127012343242	3.6273193359375E-05	0.283172607421875
869	0.28076171875	260.151412343181	3.6004638671875E-05	0.28070068359375
870	0.2783203125	260.175812343119	3.54705810546875E-05	0.27825927734375
871	0.27587890625	260.200212343058	3.52264404296875E-05	0.27581787109375
872	0.2734375	260.224612342996	3.53118896484375E-05	0.2734375
873	0.27099609375	260.249012342934	3.49273681640625E-05	0.27099609375
874	0.2685546875	260.273412342873	3.4619140625E-05	0.268463134765625
875	0.26611328125	260.297812342811	3.40423583984375E-05	0.26605224609375
876	0.263671875	260.32221234275	3.3642578125E-05	0.263580322265625
877	0.26123046875	260.346612342688	3.3221435546875E-05	0.26116943359375
878	0.2587890625	260.371012342626	3.29315185546875E-05	0.258697509765625
879	0.25634765625	260.395412342565	3.23455810546875E-05	0.256317138671875
880	0.25390625	260.419812342503	3.228759765625E-05	0.253936767578125
881	0.25146484375	260.444212342442	3.2135009765625E-05	0.25140380859375
882	0.2490234375	260.46861234238	3.15765380859375E-05	0.248992919921875
883	0.24658203125	260.493012342318	3.14971923828125E-05	0.246490478515625
884	0.244140625	260.517412342257	3.0908203125E-05	0.24407958984375
885	0.24169921875	260.541812342195	3.0767822265625E-05	0.241607666015625
886	0.2392578125	260.566212342134	3.0548095703125E-05	0.239288330078125
887	0.23681640625	260.590612342072	3.00750732421875E-05	0.236724853515625
888	0.234375	260.61501234201	2.96722412109375E-05	0.23431396484375
889	0.23193359375	260.639412341949	2.9376220703125E-05	0.231903076171875
890	0.2294921875	260.663812341887	2.894287109375E-05	0.2294921875
891	0.22705078125	260.688212341826	2.8607177734375E-05	0.227020263671875
892	0.224609375	260.712612341764	2.85186767578125E-05	0.224609375
893	0.22216796875	260.737012341702	2.8240966796875E-05	0.222198486328125
894	0.2197265625	260.761412341641	2.769775390625E-05	0.219696044921875
895	0.21728515625	260.785812341579	2.72857666015625E-05	0.217254638671875
896	0.21484375	260.810212341518	2.7215576171875E-05	0.214813232421875
897	0.21240234375	260.834612341456	2.669677734375E-05	0.21240234375
898	0.2099609375	260.859012341394	2.6513671875E-05	0.20989990234375
899	0.20751953125	260.883412341333	2.61749267578125E-05	0.20751953125
900	0.205078125	260.907812341271	2.60009765625E-05	0.20501708984375
901	0.20263671875	260.932212341209	2.5433349609375E-05	0.202606201171875
902	0.2001953125	260.956612341148	2.50152587890625E-05	0.200164794921875
903	0.19775390625	260.981012341086	2.50732421875E-05	0.19769287109375
904	0.1953125	261.005412341025	2.474365234375E-05	0.1953125
905	0.19287109375	261.029812340963	2.4493408203125E-05	0.192901611328125
906	0.1904296875	261.054212340901	2.4212646484375E-05	0.1904296875
907	0.18798828125	261.07861234084	2.38067626953125E-05	0.187957763671875
908	0.185546875	261.103012340778	2.34222412109375E-05	0.185546875
909	0.18310546875	261.127412340717	2.3040771484375E-05	0.18310546875
910	0.1806640625	261.151812340655	2.26318359375E-05	0.18060302734375
911	0.17822265625	261.176212340593	2.24761962890625E-05	0.17822265625
912	0.17578125	261.200612340532	2.203369140625E-05	0.17578125
913	0.17333984375	261.22501234047	2.18963623046875E-05	0.173370361328125
914	0.1708984375	261.249412340409	2.1502685546875E-05	0.17083740234375
915	0.16845703125	261.273812340347	2.0977783203125E-05	0.168487548828125
916	0.166015625	261.298212340285	2.05780029296875E-05	0.165985107421875
917	0.16357421875	261.322612340224	2.017822265625E-05	0.16357421875
918	0.1611328125	261.347012340162	2.0050048828125E-05	0.161163330078125
919	0.15869140625	261.371412340101	1.96044921875E-05	0.158721923828125
920	0.15625	261.395812340039	1.93603515625E-05	0.156158447265625
921	0.15380859375	261.420212339977	1.89422607421875E-05	0.15380859375
922	0.1513671875	261.444612339916	1.8658447265625E-05	0.1513671875
923	0.14892578125	261.469012339854	1.84906005859375E-05	0.14892578125
924	0.146484375	261.493412339793	1.80694580078125E-05	0.146514892578125
925	0.14404296875	261.517812339731	1.78497314453125E-05	0.144073486328125
926	0.1416015625	261.542212339669	1.737060546875E-05	0.14166259765625
927	0.13916015625	261.566612339608	1.73187255859375E-05	0.139190673828125
928	0.13671875	261.591012339546	1.6912841796875E-05	0.136749267578125
929	0.13427734375	261.615412339485	1.64581298828125E-05	0.13427734375
930	0.1318359375	261.639812339423	1.6387939453125E-05	0.131805419921875
931	0.12939453125	261.664212339361	1.5814208984375E-05	0.129486083984375
932	0.126953125	261.6886123393	1.5570068359375E-05	0.126983642578125
933	0.12451171875	261.713012339238	1.52862548828125E-05	0.124542236328125
934	0.1220703125	261.737412339177	1.4971923828125E-05	0.122100830078125
935	0.11962890625	261.761812339115	1.46270751953125E-05	0.119598388671875
936	0.1171875	261.786212339053	1.448974609375E-05	0.11724853515625
937	0.11474609375	261.810612338992	1.41021728515625E-05	0.11480712890625
938	0.1123046875	261.83501233893	1.3824462890625E-05	0.112335205078125
939	0.10986328125	261.859412338869	1.35498046875E-05	0.10986328125
940	0.107421875	261.883812338807	1.317138671875E-05	0.107452392578125
941	0.10498046875	261.908212338745	1.2945556640625E-05	0.105010986328125
942	0.1025390625	261.932612338684	1.2548828125E-05	0.102569580078125
943	0.10009765625	261.957012338622	1.23382568359375E-05	0.10015869140625
944	0.09765625	261.981412338561	1.2066650390625E-05	0.09765625
945	0.09521484375	262.005812338499	1.15936279296875E-05	0.095245361328125
946	0.0927734375	262.030212338437	1.12701416015625E-05	0.092803955078125
947	0.09033203125	262.054612338376	1.0955810546875E-05	0.090362548828125
948	0.087890625	262.079012338314	1.068115234375E-05	0.087890625
949	0.08544921875	262.103412338252	1.03607177734375E-05	0.085540771484375
950	0.0830078125	262.127812338191	1.01806640625E-05	0.083038330078125
951	0.08056640625	262.152212338129	9.8602294921875E-06	0.080596923828125
952	0.078125	262.176612338068	9.552001953125E-06	0.078125
953	0.07568359375	262.201012338006	9.149169921875E-06	0.075714111328125
954	0.0732421875	262.225412337944	8.77685546875E-06	0.0732421875
955	0.07080078125	262.249812337883	8.50830078125E-06	0.07080078125
956	0.068359375	262.274212337821	8.282470703125E-06	0.0682373046875
957	0.06591796875	262.29861233776	7.9559326171875E-06	0.0657958984375
958	0.0634765625	262.323012337698	7.7789306640625E-06	0.063323974609375
959	0.06103515625	262.347412337636	7.452392578125E-06	0.0609130859375
960	0.05859375	262.371812337575	7.1014404296875E-06	0.0584716796875
961	0.05615234375	262.396212337513	6.7901611328125E-06	0.056060791015625
962	0.0537109375	262.420612337452	6.4544677734375E-06	0.05364990234375
963	0.05126953125	262.44501233739	6.1920166015625E-06	0.051177978515625
964	0.048828125	262.469412337328	5.8990478515625E-06	0.048974609375
965	0.04638671875	262.493812337267	5.6304931640625E-06	0.046551513671875
966	0.0439453125	262.518212337205	5.352783203125E-06	0.0440826416015625
967	0.04150390625	262.542612337144	5.059814453125E-06	0.041650390625
968	0.0390625	262.567012337082	4.74334716796875E-06	0.0391998291015625
969	0.03662109375	262.59141233702	4.4757080078125E-06	0.0367645263671875
970	0.0341796875	262.615812336959	4.14947509765625E-06	0.0343292236328125
971	0.03173828125	262.640212336897	3.87115478515625E-06	0.031884765625
972	0.029296875	262.664612336836	3.5540771484375E-06	0.029412841796875
973	0.02685546875	262.689012336774	3.2867431640625E-06	0.026995849609375
974	0.0244140625	262.713412336712	2.99041748046875E-06	0.024560546875
975	0.02197265625	262.737812336651	2.6812744140625E-06	0.0221099853515625
976	0.01953125	262.762212336589	2.4102783203125E-06	0.0196624755859375
977	0.01708984375	262.786612336528	2.06573486328125E-06	0.0172454833984375
978	0.0146484375	262.811012336466	1.795654296875E-06	0.014813232421875
979	0.01220703125	262.835412336404	1.50146484375E-06	0.012353515625
980	0.009765625	262.859812336343	1.20025634765625E-06	0.0099151611328125
981	0.00732421875	262.884212336281	8.97216796875E-07	0.0074615478515625
982	0.0048828125	262.90861233622	5.9417724609375E-07	0.005035400390625
983	0.00244140625	262.933012336158	3.00750732421875E-07	0.0025909423828125
984	0	262.957412336096	6.34765625000006E-09	0.000152587890625
985	0.00244140625	262.981812336035	2.99346923828125E-07	0.00258483886718749
986	0.0048828125	263.006212335973	5.9234619140625E-07	0.005035400390625
987	0.00732421875	263.030612335912	9.02099609375E-07	0.007476806640625
988	0.009765625	263.05501233585	1.22222900390625E-06	0.00991210937500001
989	0.01220703125	263.079412335788	1.51275634765625E-06	0.01234130859375
990	0.0146484375	263.103812335727	1.8133544921875E-06	0.01478271484375
991	0.01708984375	263.128212335665	2.1002197265625E-06	0.017218017578125
992	0.01953125	263.152612335604	2.3785400390625E-06	0.0196441650390625
993	0.02197265625	263.177012335542	2.72705078125E-06	0.0220947265625
