Index	Potential applied (V)	Time (s)	WE(1).Current (A)	WE(1).Potential (V)
1	0.00244140625	16.8481299574626	3.489990234375E-07	0.0025299072265625
2	0.0048828125	16.872529957401	6.7840576171875E-07	0.005035400390625
3	0.00732421875	16.8969299573394	9.9609375E-07	0.00745849609375
4	0.009765625	16.9213299572777	1.34765625E-06	0.00989379882812499
5	0.01220703125	16.9457299572161	1.71661376953125E-06	0.0123504638671875
6	0.0146484375	16.9701299571545	2.025146484375E-06	0.0147674560546875
7	0.01708984375	16.9945299570929	2.36480712890625E-06	0.017181396484375
8	0.01953125	17.0189299570313	2.6708984375E-06	0.01962890625
9	0.02197265625	17.0433299569697	3.0169677734375E-06	0.0220947265625
10	0.0244140625	17.0677299569081	3.387451171875E-06	0.0245635986328125
11	0.02685546875	17.0921299568465	3.69293212890625E-06	0.026995849609375
12	0.029296875	17.1165299567849	4.06005859375E-06	0.0294281005859375
13	0.03173828125	17.1409299567233	4.33837890625E-06	0.0318756103515625
14	0.0341796875	17.1653299566617	4.71343994140625E-06	0.0343170166015625
15	0.03662109375	17.1897299566001	5.0872802734375E-06	0.03673095703125
16	0.0390625	17.2141299565385	5.3955078125E-06	0.0391845703125
17	0.04150390625	17.2385299564769	5.70068359375E-06	0.04163818359375
18	0.0439453125	17.2629299564153	6.0516357421875E-06	0.044085693359375
19	0.04638671875	17.2873299563537	6.396484375E-06	0.0465240478515625
20	0.048828125	17.3117299562921	6.7474365234375E-06	0.04896240234375
21	0.05126953125	17.3361299562305	7.0465087890625E-06	0.05120849609375
22	0.0537109375	17.3605299561689	7.4554443359375E-06	0.0535888671875
23	0.05615234375	17.3849299561073	7.830810546875E-06	0.056121826171875
24	0.05859375	17.4093299560457	8.0657958984375E-06	0.05853271484375
25	0.06103515625	17.4337299559841	8.49609375E-06	0.0609130859375
26	0.0634765625	17.4581299559225	8.7799072265625E-06	0.0633544921875
27	0.06591796875	17.4825299558609	9.1705322265625E-06	0.0657958984375
28	0.068359375	17.5069299557993	9.4818115234375E-06	0.06817626953125
29	0.07080078125	17.5313299557376	1.0009765625E-05	0.0706787109375
30	0.0732421875	17.555729955676	1.02447509765625E-05	0.07305908203125
31	0.07568359375	17.5801299556144	1.05316162109375E-05	0.075531005859375
32	0.078125	17.6045299555528	1.090087890625E-05	0.07806396484375
33	0.08056640625	17.6289299554912	1.11968994140625E-05	0.0804443359375
34	0.0830078125	17.6533299554296	1.1614990234375E-05	0.082855224609375
35	0.08544921875	17.677729955368	1.2017822265625E-05	0.085296630859375
36	0.087890625	17.7021299553064	1.2335205078125E-05	0.087738037109375
37	0.09033203125	17.7265299552448	1.25946044921875E-05	0.090179443359375
38	0.0927734375	17.7509299551832	1.29669189453125E-05	0.09259033203125
39	0.09521484375	17.7753299551216	1.33544921875E-05	0.095062255859375
40	0.09765625	17.79972995506	1.37664794921875E-05	0.09747314453125
41	0.10009765625	17.8241299549984	1.40472412109375E-05	0.09991455078125
42	0.1025390625	17.8485299549368	1.43829345703125E-05	0.10235595703125
43	0.10498046875	17.8729299548752	1.46148681640625E-05	0.104827880859375
44	0.107421875	17.8973299548136	1.49139404296875E-05	0.10723876953125
45	0.10986328125	17.921729954752	1.5228271484375E-05	0.109649658203125
46	0.1123046875	17.9461299546904	1.56890869140625E-05	0.112152099609375
47	0.11474609375	17.9705299546288	1.6009521484375E-05	0.11456298828125
48	0.1171875	17.9949299545672	1.65069580078125E-05	0.11700439453125
49	0.11962890625	18.0193299545056	1.7010498046875E-05	0.119384765625
50	0.1220703125	18.043729954444	1.72821044921875E-05	0.121856689453125
51	0.12451171875	18.0681299543824	1.74102783203125E-05	0.124237060546875
52	0.126953125	18.0925299543208	1.7901611328125E-05	0.126708984375
53	0.12939453125	18.1169299542591	1.83624267578125E-05	0.129150390625
54	0.1318359375	18.1413299541975	1.86676025390625E-05	0.131591796875
55	0.13427734375	18.1657299541359	1.9110107421875E-05	0.134033203125
56	0.13671875	18.1901299540743	1.9268798828125E-05	0.136474609375
57	0.13916015625	18.2145299540127	1.9818115234375E-05	0.138916015625
58	0.1416015625	18.2389299539511	2.027587890625E-05	0.14129638671875
59	0.14404296875	18.2633299538895	2.05963134765625E-05	0.143707275390625
60	0.146484375	18.2877299538279	2.09503173828125E-05	0.146209716796875
61	0.14892578125	18.3121299537663	2.1356201171875E-05	0.148651123046875
62	0.1513671875	18.3365299537047	2.17559814453125E-05	0.1510009765625
63	0.15380859375	18.3609299536431	2.216796875E-05	0.153411865234375
64	0.15625	18.3853299535815	2.237548828125E-05	0.15594482421875
65	0.15869140625	18.4097299535199	2.2821044921875E-05	0.158294677734375
66	0.1611328125	18.4341299534583	2.30438232421875E-05	0.160736083984375
67	0.16357421875	18.4585299533967	2.36328125E-05	0.16314697265625
68	0.166015625	18.4829299533351	2.37945556640625E-05	0.1656494140625
69	0.16845703125	18.5073299532735	2.41912841796875E-05	0.168060302734375
70	0.1708984375	18.5317299532119	2.48046875E-05	0.170501708984375
71	0.17333984375	18.5561299531503	2.4847412109375E-05	0.17291259765625
72	0.17578125	18.5805299530887	2.5518798828125E-05	0.17535400390625
73	0.17822265625	18.6049299530271	2.57415771484375E-05	0.177764892578125
74	0.1806640625	18.6293299529655	2.60498046875E-05	0.18023681640625
75	0.18310546875	18.6537299529039	2.67059326171875E-05	0.18255615234375
76	0.185546875	18.6781299528423	2.69012451171875E-05	0.18505859375
77	0.18798828125	18.7025299527807	2.73345947265625E-05	0.1875
78	0.1904296875	18.726929952719	2.7880859375E-05	0.18994140625
79	0.19287109375	18.7513299526574	2.8509521484375E-05	0.1923828125
80	0.1953125	18.7757299525958	2.91961669921875E-05	0.19482421875
81	0.19775390625	18.8001299525342	2.93426513671875E-05	0.197235107421875
82	0.2001953125	18.8245299524726	2.96600341796875E-05	0.199676513671875
83	0.20263671875	18.848929952411	3.0072021484375E-05	0.20208740234375
84	0.205078125	18.8733299523494	3.08258056640625E-05	0.20501708984375
85	0.20751953125	18.8977299522878	3.10455322265625E-05	0.207489013671875
86	0.2099609375	18.9221299522262	3.15521240234375E-05	0.20989990234375
87	0.21240234375	18.9465299521646	3.19000244140625E-05	0.212371826171875
88	0.21484375	18.970929952103	3.2110595703125E-05	0.21478271484375
89	0.21728515625	18.9953299520414	3.24432373046875E-05	0.217254638671875
90	0.2197265625	19.0197299519798	3.2940673828125E-05	0.219696044921875
91	0.22216796875	19.0441299519182	3.3062744140625E-05	0.222137451171875
92	0.224609375	19.0685299518566	3.350830078125E-05	0.224609375
93	0.22705078125	19.092929951795	3.39630126953125E-05	0.22698974609375
94	0.2294921875	19.1173299517334	3.4466552734375E-05	0.229461669921875
95	0.23193359375	19.1417299516718	3.47259521484375E-05	0.23187255859375
96	0.234375	19.1661299516102	3.51409912109375E-05	0.234405517578125
97	0.23681640625	19.1905299515486	3.544921875E-05	0.2366943359375
98	0.2392578125	19.214929951487	3.6126708984375E-05	0.239227294921875
99	0.24169921875	19.2393299514254	3.6529541015625E-05	0.24169921875
100	0.244140625	19.2637299513638	3.6859130859375E-05	0.244110107421875
101	0.24658203125	19.2881299513022	3.73077392578125E-05	0.246551513671875
102	0.2490234375	19.3125299512405	3.7982177734375E-05	0.2490234375
103	0.25146484375	19.3369299511789	3.82659912109375E-05	0.251434326171875
104	0.25390625	19.3613299511173	3.8763427734375E-05	0.253814697265625
105	0.25634765625	19.3857299510557	3.92913818359375E-05	0.25628662109375
106	0.2587890625	19.4101299509941	3.96636962890625E-05	0.2586669921875
107	0.26123046875	19.4345299509325	3.9813232421875E-05	0.26116943359375
108	0.263671875	19.4589299508709	3.9886474609375E-05	0.263580322265625
109	0.26611328125	19.4833299508093	4.04022216796875E-05	0.26605224609375
110	0.2685546875	19.5077299507477	4.0936279296875E-05	0.268463134765625
111	0.27099609375	19.5321299506861	4.14215087890625E-05	0.270965576171875
112	0.2734375	19.5565299506245	4.19921875E-05	0.2733154296875
113	0.27587890625	19.5809299505629	4.267578125E-05	0.27581787109375
114	0.2783203125	19.6053299505013	4.293212890625E-05	0.278289794921875
115	0.28076171875	19.6297299504397	4.35546875E-05	0.280670166015625
116	0.283203125	19.6541299503781	4.38323974609375E-05	0.28314208984375
117	0.28564453125	19.6785299503165	4.4219970703125E-05	0.285614013671875
118	0.2880859375	19.7029299502549	4.5062255859375E-05	0.28802490234375
119	0.29052734375	19.7273299501933	4.56451416015625E-05	0.2904052734375
120	0.29296875	19.7517299501317	4.620361328125E-05	0.292877197265625
121	0.29541015625	19.7761299500701	4.6600341796875E-05	0.295379638671875
122	0.2978515625	19.8005299500085	4.703369140625E-05	0.297760009765625
123	0.30029296875	19.8249299499469	4.7509765625E-05	0.3001708984375
124	0.302734375	19.8493299498853	4.82452392578125E-05	0.302642822265625
125	0.30517578125	19.8737299498237	4.876708984375E-05	0.3050537109375
126	0.3076171875	19.8981299497621	4.945068359375E-05	0.3074951171875
127	0.31005859375	19.9225299497004	5.023193359375E-05	0.309967041015625
128	0.3125	19.9469299496388	5.078125E-05	0.3123779296875
129	0.31494140625	19.9713299495772	5.133056640625E-05	0.314849853515625
130	0.3173828125	19.9957299495156	5.1849365234375E-05	0.31732177734375
131	0.31982421875	20.020129949454	5.224609375E-05	0.319671630859375
132	0.322265625	20.0445299493924	5.28564453125E-05	0.3221435546875
133	0.32470703125	20.0689299493308	5.322265625E-05	0.3245849609375
134	0.3271484375	20.0933299492692	5.3802490234375E-05	0.327056884765625
135	0.32958984375	20.1177299492076	5.4534912109375E-05	0.329437255859375
136	0.33203125	20.142129949146	5.46875E-05	0.331878662109375
137	0.33447265625	20.1665299490844	5.56640625E-05	0.3343505859375
138	0.3369140625	20.1909299490228	5.60302734375E-05	0.3367919921875
139	0.33935546875	20.2153299489612	5.6427001953125E-05	0.33929443359375
140	0.341796875	20.2397299488996	5.7586669921875E-05	0.341644287109375
141	0.34423828125	20.264129948838	5.804443359375E-05	0.34417724609375
142	0.3466796875	20.2885299487764	5.859375E-05	0.3465576171875
143	0.34912109375	20.3129299487148	5.9234619140625E-05	0.3489990234375
144	0.3515625	20.3373299486532	6.036376953125E-05	0.351409912109375
145	0.35400390625	20.3617299485916	6.060791015625E-05	0.35382080078125
146	0.3564453125	20.38612994853	6.1737060546875E-05	0.356353759765625
147	0.35888671875	20.4105299484684	6.2164306640625E-05	0.35882568359375
148	0.361328125	20.4349299484068	6.268310546875E-05	0.361236572265625
149	0.36376953125	20.4593299483452	6.396484375E-05	0.363677978515625
150	0.3662109375	20.4837299482836	6.4300537109375E-05	0.366119384765625
151	0.36865234375	20.5081299482219	6.5185546875E-05	0.368499755859375
152	0.37109375	20.5325299481603	6.597900390625E-05	0.37091064453125
153	0.37353515625	20.5569299480987	6.7291259765625E-05	0.37347412109375
154	0.3759765625	20.5813299480371	6.8267822265625E-05	0.3758544921875
155	0.37841796875	20.6057299479755	6.8939208984375E-05	0.378326416015625
156	0.380859375	20.6301299479139	7.049560546875E-05	0.3807373046875
157	0.38330078125	20.6545299478523	7.1014404296875E-05	0.383209228515625
158	0.3857421875	20.6789299477907	7.208251953125E-05	0.3856201171875
159	0.38818359375	20.7033299477291	7.33642578125E-05	0.3880615234375
160	0.390625	20.7277299476675	7.4066162109375E-05	0.3905029296875
161	0.39306640625	20.7521299476059	7.5897216796875E-05	0.392974853515625
162	0.3955078125	20.7765299475443	7.6873779296875E-05	0.395416259765625
163	0.39794921875	20.8009299474827	7.8033447265625E-05	0.39788818359375
164	0.400390625	20.8253299474211	7.9681396484375E-05	0.4002685546875
165	0.40283203125	20.8497299473595	8.0230712890625E-05	0.40264892578125
166	0.4052734375	20.8741299472979	8.1573486328125E-05	0.4051513671875
167	0.40771484375	20.8985299472363	8.2977294921875E-05	0.4075927734375
168	0.41015625	20.9229299471747	8.4381103515625E-05	0.4100341796875
169	0.41259765625	20.9473299471131	8.70361328125E-05	0.412445068359375
170	0.4150390625	20.9717299470515	8.758544921875E-05	0.4149169921875
171	0.41748046875	20.9961299469899	8.9935302734375E-05	0.4173583984375
172	0.419921875	21.0205299469283	9.1827392578125E-05	0.419769287109375
173	0.42236328125	21.0449299468667	9.2529296875E-05	0.4222412109375
174	0.4248046875	21.0693299468051	9.527587890625E-05	0.424652099609375
175	0.42724609375	21.0937299467435	9.7442626953125E-05	0.4271240234375
176	0.4296875	21.1181299466818	9.9151611328125E-05	0.4295654296875
177	0.43212890625	21.1425299466202	0.0001011962890625	0.43194580078125
178	0.4345703125	21.1669299465586	0.000103179931640625	0.434417724609375
179	0.43701171875	21.191329946497	0.00010565185546875	0.43682861328125
180	0.439453125	21.2157299464354	0.000107696533203125	0.439300537109375
181	0.44189453125	21.2401299463738	0.00011016845703125	0.44171142578125
182	0.4443359375	21.2645299463122	0.00011273193359375	0.444183349609375
183	0.44677734375	21.2889299462506	0.000115509033203125	0.44659423828125
184	0.44921875	21.313329946189	0.0001177978515625	0.449005126953125
185	0.45166015625	21.3377299461274	0.000120574951171875	0.45147705078125
186	0.4541015625	21.3621299460658	0.0001239013671875	0.453887939453125
187	0.45654296875	21.3865299460042	0.00012677001953125	0.456298828125
188	0.458984375	21.4109299459426	0.0001292724609375	0.458740234375
189	0.46142578125	21.435329945881	0.00013299560546875	0.461181640625
190	0.4638671875	21.4597299458194	0.00013671875	0.463653564453125
191	0.46630859375	21.4841299457578	0.0001405029296875	0.466094970703125
192	0.46875	21.5085299456962	0.000143890380859375	0.468475341796875
193	0.47119140625	21.5329299456346	0.000147003173828125	0.470916748046875
194	0.4736328125	21.557329945573	0.000151611328125	0.473297119140625
195	0.47607421875	21.5817299455114	0.0001552734375	0.475830078125
196	0.478515625	21.6061299454498	0.0001602783203125	0.47821044921875
197	0.48095703125	21.6305299453882	0.000164886474609375	0.48065185546875
198	0.4833984375	21.6549299453266	0.000169342041015625	0.483123779296875
199	0.48583984375	21.679329945265	0.000173614501953125	0.485565185546875
200	0.48828125	21.7037299452033	0.00017791748046875	0.487884521484375
201	0.49072265625	21.7281299451417	0.000182220458984375	0.4903564453125
202	0.4931640625	21.7525299450801	0.00018743896484375	0.49273681640625
203	0.49560546875	21.7769299450185	0.000192352294921875	0.49517822265625
204	0.498046875	21.8013299449569	0.0001983642578125	0.49761962890625
205	0.50048828125	21.8257299448953	0.000204010009765625	0.500030517578125
206	0.5029296875	21.8501299448337	0.000208892822265625	0.50244140625
207	0.50537109375	21.8745299447721	0.000214813232421875	0.504913330078125
208	0.5078125	21.8989299447105	0.000221923828125	0.507293701171875
209	0.51025390625	21.9233299446489	0.00022705078125	0.509735107421875
210	0.5126953125	21.9477299445873	0.00023480224609375	0.512176513671875
211	0.51513671875	21.9721299445257	0.000240325927734375	0.5146484375
212	0.517578125	21.9965299444641	0.000247802734375	0.51702880859375
213	0.52001953125	22.0209299444025	0.000255279541015625	0.519500732421875
214	0.5224609375	22.0453299443409	0.000262176513671875	0.5218505859375
215	0.52490234375	22.0697299442793	0.000270904541015625	0.524261474609375
216	0.52734375	22.0941299442177	0.00027850341796875	0.5267333984375
217	0.52978515625	22.1185299441561	0.000285614013671875	0.52911376953125
218	0.5322265625	22.1429299440945	0.000293914794921875	0.531463623046875
219	0.53466796875	22.1673299440329	0.000303466796875	0.53399658203125
220	0.537109375	22.1917299439713	0.000312530517578125	0.537017822265625
221	0.53955078125	22.2161299439097	0.0003216552734375	0.53948974609375
222	0.5419921875	22.2405299438481	0.00033087158203125	0.541900634765625
223	0.54443359375	22.2649299437865	0.00034014892578125	0.5443115234375
224	0.546875	22.2893299437249	0.00035028076171875	0.54681396484375
225	0.54931640625	22.3137299436632	0.000360504150390625	0.5491943359375
226	0.5517578125	22.3381299436016	0.000371429443359375	0.5516357421875
227	0.55419921875	22.36252994354	0.000381866455078125	0.55413818359375
228	0.556640625	22.3869299434784	0.000392822265625	0.55657958984375
229	0.55908203125	22.4113299434168	0.00040521240234375	0.5589599609375
230	0.5615234375	22.4357299433552	0.00041693115234375	0.561431884765625
231	0.56396484375	22.4601299432936	0.000427764892578125	0.563873291015625
232	0.56640625	22.484529943232	0.000440277099609375	0.566314697265625
233	0.56884765625	22.5089299431704	0.000452056884765625	0.568756103515625
234	0.5712890625	22.5333299431088	0.000465118408203125	0.571136474609375
235	0.57373046875	22.5577299430472	0.00047857666015625	0.5736083984375
236	0.576171875	22.5821299429856	0.0004913330078125	0.576080322265625
237	0.57861328125	22.606529942924	0.00050567626953125	0.5784912109375
238	0.5810546875	22.6309299428624	0.00051971435546875	0.5809326171875
239	0.58349609375	22.6553299428008	0.00053466796875	0.583404541015625
240	0.5859375	22.6797299427392	0.00054840087890625	0.5858154296875
241	0.58837890625	22.7041299426776	0.0005633544921875	0.58819580078125
242	0.5908203125	22.728529942616	0.00057861328125	0.59063720703125
243	0.59326171875	22.7529299425544	0.0005950927734375	0.5931396484375
244	0.595703125	22.7773299424928	0.00061065673828125	0.5955810546875
245	0.59814453125	22.8017299424312	0.00062713623046875	0.59796142578125
246	0.6005859375	22.8261299423696	0.00064361572265625	0.6004638671875
247	0.60302734375	22.850529942308	0.0006597900390625	0.602935791015625
248	0.60546875	22.8749299422464	0.000677490234375	0.60528564453125
249	0.60791015625	22.8993299421847	0.0006951904296875	0.60772705078125
250	0.6103515625	22.9237299421231	0.00071258544921875	0.61016845703125
251	0.61279296875	22.9481299420615	0.00073028564453125	0.612640380859375
252	0.615234375	22.9725299419999	0.0007501220703125	0.615081787109375
253	0.61767578125	22.9969299419383	0.00076934814453125	0.617462158203125
254	0.6201171875	23.0213299418767	0.0007879638671875	0.619873046875
255	0.62255859375	23.0457299418151	0.00080780029296875	0.622406005859375
256	0.625	23.0701299417535	0.00082794189453125	0.624755859375
257	0.62744140625	23.0945299416919	0.000848388671875	0.62725830078125
258	0.6298828125	23.1189299416303	0.00086883544921875	0.629669189453125
259	0.63232421875	23.1433299415687	0.000889892578125	0.632171630859375
260	0.634765625	23.1677299415071	0.00091094970703125	0.634552001953125
261	0.63720703125	23.1921299414455	0.00093292236328125	0.636993408203125
262	0.6396484375	23.2165299413839	0.00095428466796875	0.639434814453125
263	0.64208984375	23.2409299413223	0.0009765625	0.641815185546875
264	0.64453125	23.2653299412607	0.000999755859375	0.644317626953125
265	0.64697265625	23.2897299411991	0.001021728515625	0.64666748046875
266	0.6494140625	23.3141299411375	0.001046142578125	0.649200439453125
267	0.65185546875	23.3385299410759	0.0010699462890625	0.65155029296875
268	0.654296875	23.3629299410143	0.00109405517578125	0.654022216796875
269	0.65673828125	23.3873299409527	0.00111846923828125	0.65643310546875
270	0.6591796875	23.4117299408911	0.00114349365234375	0.65887451171875
271	0.66162109375	23.4361299408295	0.00116943359375	0.661346435546875
272	0.6640625	23.4605299407679	0.0011944580078125	0.663787841796875
273	0.66650390625	23.4849299407063	0.0012200927734375	0.66619873046875
274	0.6689453125	23.5093299406446	0.0012469482421875	0.6685791015625
275	0.67138671875	23.533729940583	0.00127349853515625	0.6710205078125
276	0.673828125	23.5581299405214	0.001300048828125	0.6734619140625
277	0.67626953125	23.5825299404598	0.001326904296875	0.675872802734375
278	0.6787109375	23.6069299403982	0.00135467529296875	0.678375244140625
279	0.68115234375	23.6313299403366	0.00138275146484375	0.680816650390625
280	0.68359375	23.655729940275	0.001409912109375	0.68316650390625
281	0.68603515625	23.6801299402134	0.00143951416015625	0.6856689453125
282	0.6884765625	23.7045299401518	0.001468505859375	0.68804931640625
283	0.69091796875	23.7289299400902	0.0014971923828125	0.690460205078125
284	0.693359375	23.7533299400286	0.0015264892578125	0.69293212890625
285	0.69580078125	23.777729939967	0.00155609130859375	0.695343017578125
286	0.6982421875	23.8021299399054	0.00158599853515625	0.69775390625
287	0.70068359375	23.8265299398438	0.00161590576171875	0.700225830078125
288	0.703125	23.8509299397822	0.00164642333984375	0.70269775390625
289	0.70556640625	23.8753299397206	0.00167816162109375	0.705108642578125
290	0.7080078125	23.899729939659	0.00171051025390625	0.70745849609375
291	0.71044921875	23.9241299395974	0.001741943359375	0.7099609375
292	0.712890625	23.9485299395358	0.00177337646484375	0.71240234375
293	0.71533203125	23.9729299394742	0.0018060302734375	0.714813232421875
294	0.7177734375	23.9973299394126	0.00183929443359375	0.71722412109375
295	0.72021484375	24.021729939351	0.00187164306640625	0.71966552734375
296	0.72265625	24.0461299392894	0.00190399169921875	0.72210693359375
297	0.72509765625	24.0705299392278	0.00193817138671875	0.72454833984375
298	0.7275390625	24.0949299391661	0.0019720458984375	0.726959228515625
299	0.72998046875	24.1193299391045	0.002005615234375	0.729461669921875
300	0.732421875	24.1437299390429	0.002039794921875	0.731842041015625
301	0.73486328125	24.1681299389813	0.002073974609375	0.73419189453125
302	0.7373046875	24.1925299389197	0.00210906982421875	0.736663818359375
303	0.73974609375	24.2169299388581	0.00214447021484375	0.739105224609375
304	0.7421875	24.2413299387965	0.002181396484375	0.74151611328125
305	0.74462890625	24.2657299387349	0.002216796875	0.74395751953125
306	0.7470703125	24.2901299386733	0.0022528076171875	0.74639892578125
307	0.74951171875	24.3145299386117	0.002288818359375	0.74884033203125
308	0.751953125	24.3389299385501	0.002325439453125	0.75164794921875
309	0.75439453125	24.3633299384885	0.00236236572265625	0.75408935546875
310	0.7568359375	24.3877299384269	0.00239898681640625	0.75592041015625
311	0.75927734375	24.4121299383653	0.00243621826171875	0.75836181640625
312	0.76171875	24.4365299383037	0.00247406005859375	0.76080322265625
313	0.76416015625	24.4609299382421	0.0025128173828125	0.76324462890625
314	0.7666015625	24.4853299381805	0.00255035400390625	0.76629638671875
315	0.76904296875	24.5097299381189	0.00258941650390625	0.7684326171875
316	0.771484375	24.5341299380573	0.0026275634765625	0.770263671875
317	0.77392578125	24.5585299379957	0.0026666259765625	0.7733154296875
318	0.7763671875	24.5829299379341	0.0027056884765625	0.77545166015625
319	0.77880859375	24.6073299378725	0.002745361328125	0.777587890625
320	0.78125	24.6317299378109	0.00278472900390625	0.78033447265625
321	0.78369140625	24.6561299377493	0.00282470703125	0.78338623046875
322	0.7861328125	24.6805299376877	0.00286529541015625	0.78521728515625
323	0.78857421875	24.704929937626	0.00290557861328125	0.7879638671875
324	0.791015625	24.7293299375644	0.00294647216796875	0.79010009765625
325	0.79345703125	24.7537299375028	0.002987060546875	0.792236328125
326	0.7958984375	24.7781299374412	0.00302825927734375	0.79498291015625
327	0.79833984375	24.8025299373796	0.003070068359375	0.79803466796875
328	0.80078125	24.826929937318	0.003111572265625	0.8001708984375
329	0.80322265625	24.8513299372564	0.003153076171875	0.8026123046875
330	0.8056640625	24.8757299371948	0.00319549560546875	0.80474853515625
331	0.80810546875	24.9001299371332	0.00323638916015625	0.806884765625
332	0.810546875	24.9245299370716	0.00327789306640625	0.8099365234375
333	0.81298828125	24.94892993701	0.00332061767578125	0.81207275390625
334	0.8154296875	24.9733299369484	0.0033624267578125	0.8148193359375
335	0.81787109375	24.9977299368868	0.00340576171875	0.81695556640625
336	0.8203125	25.0221299368252	0.0034490966796875	0.82000732421875
337	0.82275390625	25.0465299367636	0.00349212646484375	0.821533203125
338	0.8251953125	25.070929936702	0.00353485107421875	0.8245849609375
339	0.82763671875	25.0953299366404	0.003577880859375	0.82672119140625
340	0.830078125	25.1197299365788	0.00362030029296875	0.82916259765625
341	0.83251953125	25.1441299365172	0.0036639404296875	0.83160400390625
342	0.8349609375	25.1685299364556	0.0037060546875	0.83404541015625
343	0.83740234375	25.192929936394	0.00374908447265625	0.83648681640625
344	0.83984375	25.2173299363324	0.00379180908203125	0.83892822265625
345	0.84228515625	25.2417299362708	0.0038348388671875	0.84136962890625
346	0.8447265625	25.2661299362092	0.0038763427734375	0.84442138671875
347	0.84716796875	25.2905299361475	0.00391845703125	0.8465576171875
348	0.849609375	25.3149299360859	0.00395965576171875	0.8489990234375
349	0.85205078125	25.3393299360243	0.00400146484375	0.8514404296875
350	0.8544921875	25.3637299359627	0.0040423583984375	0.8538818359375
351	0.85693359375	25.3881299359011	0.0040826416015625	0.85601806640625
352	0.859375	25.4125299358395	0.004122314453125	0.8587646484375
353	0.86181640625	25.4369299357779	0.00416107177734375	0.86090087890625
354	0.8642578125	25.4613299357163	0.0041998291015625	0.86395263671875
355	0.86669921875	25.4857299356547	0.004237060546875	0.8660888671875
356	0.869140625	25.5101299355931	0.0042730712890625	0.86883544921875
357	0.87158203125	25.5345299355315	0.00430908203125	0.8709716796875
358	0.8740234375	25.5589299354699	0.00434417724609375	0.87310791015625
359	0.87646484375	25.5833299354083	0.0043780517578125	0.8758544921875
360	0.87890625	25.6077299353467	0.0044110107421875	0.87799072265625
361	0.88134765625	25.6321299352851	0.004443359375	0.8807373046875
362	0.8837890625	25.6565299352235	0.00447540283203125	0.8831787109375
363	0.88623046875	25.6809299351619	0.00450592041015625	0.885009765625
364	0.888671875	25.7053299351003	0.0045355224609375	0.88714599609375
365	0.89111328125	25.7297299350387	0.00456451416015625	0.89019775390625
366	0.8935546875	25.7541299349771	0.00459259033203125	0.89263916015625
367	0.89599609375	25.7785299349155	0.0046197509765625	0.894775390625
368	0.8984375	25.8029299348539	0.0046466064453125	0.897216796875
369	0.90087890625	25.8273299347923	0.00467254638671875	0.9002685546875
370	0.9033203125	25.8517299347307	0.00469757080078125	0.9027099609375
371	0.90576171875	25.8761299346691	0.0047222900390625	0.904541015625
372	0.908203125	25.9005299346074	0.00474578857421875	0.906982421875
373	0.91064453125	25.9249299345458	0.004769287109375	0.90972900390625
374	0.9130859375	25.9493299344842	0.00479156494140625	0.91217041015625
375	0.91552734375	25.9737299344226	0.00481353759765625	0.914306640625
376	0.91796875	25.998129934361	0.00483489990234375	0.91705322265625
377	0.92041015625	26.0225299342994	0.00485595703125	0.9197998046875
378	0.9228515625	26.0469299342378	0.00487640380859375	0.92254638671875
379	0.92529296875	26.0713299341762	0.004896240234375	0.924072265625
380	0.927734375	26.0957299341146	0.00491546630859375	0.926513671875
381	0.93017578125	26.120129934053	0.00493438720703125	0.928955078125
382	0.9326171875	26.1445299339914	0.00495330810546875	0.93170166015625
383	0.93505859375	26.1689299339298	0.00497161865234375	0.93353271484375
384	0.9375	26.1933299338682	0.00498931884765625	0.93597412109375
385	0.93994140625	26.2177299338066	0.0050067138671875	0.93902587890625
386	0.9423828125	26.242129933745	0.00502410888671875	0.94146728515625
387	0.94482421875	26.2665299336834	0.0050408935546875	0.94451904296875
388	0.947265625	26.2909299336218	0.00505706787109375	0.9466552734375
389	0.94970703125	26.3153299335602	0.00507293701171875	0.94818115234375
390	0.9521484375	26.3397299334986	0.00508880615234375	0.95123291015625
391	0.95458984375	26.364129933437	0.0051043701171875	0.95367431640625
392	0.95703125	26.3885299333754	0.00511962890625	0.95672607421875
393	0.95947265625	26.4129299333138	0.00513458251953125	0.9588623046875
394	0.9619140625	26.4373299332522	0.00514923095703125	0.9613037109375
395	0.96435546875	26.4617299331906	0.00516357421875	0.96343994140625
396	0.966796875	26.486129933129	0.0051776123046875	0.96588134765625
397	0.96923828125	26.5105299330673	0.005191650390625	0.96832275390625
398	0.9716796875	26.5349299330057	0.00520538330078125	0.97076416015625
399	0.97412109375	26.5593299329441	0.00521881103515625	0.9735107421875
400	0.9765625	26.5837299328825	0.00523223876953125	0.975341796875
401	0.97900390625	26.6081299328209	0.005245361328125	0.9783935546875
402	0.9814453125	26.6325299327593	0.00525787353515625	0.98052978515625
403	0.98388671875	26.6569299326977	0.00527069091796875	0.98297119140625
404	0.986328125	26.6813299326361	0.005283203125	0.98602294921875
405	0.98876953125	26.7057299325745	0.00529541015625	0.98724365234375
406	0.9912109375	26.7301299325129	0.0053076171875	0.99029541015625
407	0.99365234375	26.7545299324513	0.00531951904296875	0.9930419921875
408	0.99609375	26.7789299323897	0.0053314208984375	0.9954833984375
409	0.99853515625	26.8033299323281	0.005343017578125	0.99822998046875
410	1.0009765625	26.8277299322665	0.0053546142578125	1.0003662109375
411	1.00341796875	26.8521299322049	0.00536590576171875	1.0028076171875
412	1.005859375	26.8765299321433	0.005377197265625	1.0052490234375
413	1.00830078125	26.9009299320817	0.00538818359375	1.00738525390625
414	1.0107421875	26.9253299320201	0.005399169921875	1.0101318359375
415	1.01318359375	26.9497299319585	0.00540985107421875	1.01226806640625
416	1.015625	26.9741299318969	0.0054205322265625	1.01470947265625
417	1.01806640625	26.9985299318353	0.005430908203125	1.01654052734375
418	1.0205078125	27.0229299317737	0.00544158935546875	1.01898193359375
419	1.02294921875	27.0473299317121	0.00545196533203125	1.021728515625
420	1.025390625	27.0717299316505	0.0054620361328125	1.0247802734375
421	1.02783203125	27.0961299315888	0.0054718017578125	1.0272216796875
422	1.0302734375	27.1205299315272	0.00548187255859375	1.0296630859375
423	1.03271484375	27.1449299314656	0.00549163818359375	1.031494140625
424	1.03515625	27.169329931404	0.00550140380859375	1.03424072265625
425	1.03759765625	27.1937299313424	0.0055108642578125	1.0369873046875
426	1.0400390625	27.2181299312808	0.0055206298828125	1.03912353515625
427	1.04248046875	27.2425299312192	0.00552978515625	1.04156494140625
428	1.044921875	27.2669299311576	0.00553924560546875	1.04400634765625
429	1.04736328125	27.291329931096	0.00554840087890625	1.0467529296875
430	1.0498046875	27.3157299310344	0.0055572509765625	1.0491943359375
431	1.05224609375	27.3401299309728	0.00556640625	1.051025390625
432	1.0546875	27.3645299309112	0.00557525634765625	1.05377197265625
433	1.05712890625	27.3889299308496	0.0055841064453125	1.055908203125
434	1.0595703125	27.413329930788	0.00559295654296875	1.058349609375
435	1.06201171875	27.4377299307264	0.00560150146484375	1.06109619140625
436	1.064453125	27.4621299306648	0.0056103515625	1.06353759765625
437	1.06689453125	27.4865299306032	0.00561859130859375	1.06597900390625
438	1.0693359375	27.5109299305416	0.00562713623046875	1.068115234375
439	1.07177734375	27.53532993048	0.0056353759765625	1.0711669921875
440	1.07421875	27.5597299304184	0.00564361572265625	1.07330322265625
441	1.07666015625	27.5841299303568	0.00565185546875	1.07513427734375
442	1.0791015625	27.6085299302952	0.00566009521484375	1.077880859375
443	1.08154296875	27.6329299302336	0.00566802978515625	1.08001708984375
444	1.083984375	27.657329930172	0.00567626953125	1.082763671875
445	1.08642578125	27.6817299301104	0.00568389892578125	1.085205078125
446	1.0888671875	27.7061299300487	0.00569183349609375	1.0882568359375
447	1.09130859375	27.7305299299871	0.00569976806640625	1.09039306640625
448	1.09375	27.7549299299255	0.0057073974609375	1.09283447265625
449	1.09619140625	27.7793299298639	0.00571502685546875	1.09466552734375
450	1.0986328125	27.8037299298023	0.00572265625	1.0980224609375
451	1.10107421875	27.8281299297407	0.00573028564453125	1.10015869140625
452	1.103515625	27.8525299296791	0.0057379150390625	1.1029052734375
453	1.10595703125	27.8769299296175	0.0057452392578125	1.10504150390625
454	1.1083984375	27.9013299295559	0.0057525634765625	1.107177734375
455	1.11083984375	27.9257299294943	0.0057598876953125	1.10992431640625
456	1.11328125	27.9501299294327	0.0057672119140625	1.112060546875
457	1.11572265625	27.9745299293711	0.00577423095703125	1.11480712890625
458	1.1181640625	27.9989299293095	0.00578125	1.116943359375
459	1.12060546875	28.0233299292479	0.00578826904296875	1.119384765625
460	1.123046875	28.0477299291863	0.0057952880859375	1.12213134765625
461	1.12548828125	28.0721299291247	0.00580230712890625	1.12457275390625
462	1.1279296875	28.0965299290631	0.005809326171875	1.12762451171875
463	1.13037109375	28.1209299290015	0.0058160400390625	1.12945556640625
464	1.1328125	28.1453299289399	0.00582305908203125	1.131591796875
465	1.13525390625	28.1697299288783	0.00582977294921875	1.13433837890625
466	1.1376953125	28.1941299288167	0.00583648681640625	1.13616943359375
467	1.14013671875	28.2185299287551	0.00584320068359375	1.1395263671875
468	1.142578125	28.2429299286935	0.00584991455078125	1.1419677734375
469	1.14501953125	28.2673299286319	0.0058563232421875	1.143798828125
470	1.1474609375	28.2917299285702	0.005863037109375	1.14654541015625
471	1.14990234375	28.3161299285086	0.00586944580078125	1.14898681640625
472	1.15234375	28.340529928447	0.0058758544921875	1.151123046875
473	1.15478515625	28.3649299283854	0.00588226318359375	1.15386962890625
474	1.1572265625	28.3893299283238	0.005888671875	1.15570068359375
475	1.15966796875	28.4137299282622	0.00589508056640625	1.1578369140625
476	1.162109375	28.4381299282006	0.00590118408203125	1.1614990234375
477	1.16455078125	28.462529928139	0.0059075927734375	1.16363525390625
478	1.1669921875	28.4869299280774	0.0059136962890625	1.1663818359375
479	1.16943359375	28.5113299280158	0.0059197998046875	1.1688232421875
480	1.171875	28.5357299279542	0.0059259033203125	1.170654296875
481	1.17431640625	28.5601299278926	0.0059320068359375	1.17340087890625
482	1.1767578125	28.584529927831	0.0059381103515625	1.1761474609375
483	1.17919921875	28.6089299277694	0.0059442138671875	1.1785888671875
484	1.181640625	28.6333299277078	0.0059503173828125	1.180419921875
485	1.18408203125	28.6577299276462	0.00595611572265625	1.18255615234375
486	1.1865234375	28.6821299275846	0.0059619140625	1.185302734375
487	1.18896484375	28.706529927523	0.005968017578125	1.18804931640625
488	1.19140625	28.7309299274614	0.00597381591796875	1.190185546875
489	1.19384765625	28.7553299273998	0.0059796142578125	1.192626953125
490	1.1962890625	28.7797299273382	0.00598541259765625	1.19537353515625
491	1.19873046875	28.8041299272766	0.0059912109375	1.197509765625
492	1.201171875	28.828529927215	0.0059967041015625	1.19964599609375
493	1.19873046875	28.8529299271534	0.00598541259765625	1.19720458984375
494	1.1962890625	28.8773299270918	0.00597381591796875	1.19476318359375
495	1.19384765625	28.9017299270301	0.00596221923828125	1.1932373046875
496	1.19140625	28.9261299269685	0.0059503173828125	1.190185546875
497	1.18896484375	28.9505299269069	0.00593841552734375	1.18804931640625
498	1.1865234375	28.9749299268453	0.005926513671875	1.185302734375
499	1.18408203125	28.9993299267837	0.005914306640625	1.18255615234375
500	1.181640625	29.0237299267221	0.005902099609375	1.18072509765625
501	1.17919921875	29.0481299266605	0.005889892578125	1.17828369140625
502	1.1767578125	29.0725299265989	0.00587738037109375	1.17584228515625
503	1.17431640625	29.0969299265373	0.00586456298828125	1.17340087890625
504	1.171875	29.1213299264757	0.00585174560546875	1.170654296875
505	1.16943359375	29.1457299264141	0.00583892822265625	1.16851806640625
506	1.1669921875	29.1701299263525	0.0058258056640625	1.16607666015625
507	1.16455078125	29.1945299262909	0.0058123779296875	1.16424560546875
508	1.162109375	29.2189299262293	0.0057989501953125	1.1614990234375
509	1.15966796875	29.2433299261677	0.00578521728515625	1.15875244140625
510	1.1572265625	29.2677299261061	0.00577178955078125	1.15631103515625
511	1.15478515625	29.2921299260445	0.00575775146484375	1.15386962890625
512	1.15234375	29.3165299259829	0.005743408203125	1.15081787109375
513	1.14990234375	29.3409299259213	0.00572906494140625	1.148681640625
514	1.1474609375	29.3653299258597	0.00571441650390625	1.146240234375
515	1.14501953125	29.3897299257981	0.00569976806640625	1.1444091796875
516	1.142578125	29.4141299257365	0.005684814453125	1.141357421875
517	1.14013671875	29.4385299256749	0.0056695556640625	1.13922119140625
518	1.1376953125	29.4629299256133	0.00565399169921875	1.13677978515625
519	1.13525390625	29.4873299255516	0.005638427734375	1.13433837890625
520	1.1328125	29.51172992549	0.00562255859375	1.13189697265625
521	1.13037109375	29.5361299254284	0.00560638427734375	1.1297607421875
522	1.1279296875	29.5605299253668	0.00558990478515625	1.12701416015625
523	1.12548828125	29.5849299253052	0.0055731201171875	1.124267578125
524	1.123046875	29.6093299252436	0.0055560302734375	1.121826171875
525	1.12060546875	29.633729925182	0.00553863525390625	1.11968994140625
526	1.1181640625	29.6581299251204	0.00552093505859375	1.11724853515625
527	1.11572265625	29.6825299250588	0.0055029296875	1.11480712890625
528	1.11328125	29.7069299249972	0.00548431396484375	1.11175537109375
529	1.11083984375	29.7313299249356	0.00546600341796875	1.109619140625
530	1.1083984375	29.755729924874	0.00544677734375	1.10687255859375
531	1.10595703125	29.7801299248124	0.00542724609375	1.104736328125
532	1.103515625	29.8045299247508	0.0054071044921875	1.10260009765625
533	1.10107421875	29.8289299246892	0.00538665771484375	1.099853515625
534	1.0986328125	29.8533299246276	0.00536590576171875	1.09771728515625
535	1.09619140625	29.877729924566	0.00534454345703125	1.09527587890625
536	1.09375	29.9021299245044	0.00532257080078125	1.09283447265625
537	1.09130859375	29.9265299244428	0.00530029296875	1.09039306640625
538	1.0888671875	29.9509299243812	0.005277099609375	1.08795166015625
539	1.08642578125	29.9753299243196	0.00525360107421875	1.0858154296875
540	1.083984375	29.999729924258	0.00522918701171875	1.08306884765625
541	1.08154296875	30.0241299241964	0.0052044677734375	1.080322265625
542	1.0791015625	30.0485299241348	0.00517852783203125	1.077880859375
543	1.07666015625	30.0729299240732	0.00515228271484375	1.07574462890625
544	1.07421875	30.0973299240115	0.00512481689453125	1.07330322265625
545	1.07177734375	30.1217299239499	0.005096435546875	1.0711669921875
546	1.0693359375	30.1461299238883	0.00506744384765625	1.0687255859375
547	1.06689453125	30.1705299238267	0.00503692626953125	1.065673828125
548	1.064453125	30.1949299237651	0.00500579833984375	1.0638427734375
549	1.06201171875	30.2193299237035	0.00497314453125	1.0614013671875
550	1.0595703125	30.2437299236419	0.00493927001953125	1.058349609375
551	1.05712890625	30.2681299235803	0.00490386962890625	1.05621337890625
552	1.0546875	30.2925299235187	0.00486724853515625	1.05377197265625
553	1.05224609375	30.3169299234571	0.00482879638671875	1.0516357421875
554	1.0498046875	30.3413299233955	0.004788818359375	1.04827880859375
555	1.04736328125	30.3657299233339	0.0047467041015625	1.0467529296875
556	1.044921875	30.3901299232723	0.00470245361328125	1.043701171875
557	1.04248046875	30.4145299232107	0.0046563720703125	1.04156494140625
558	1.0400390625	30.4389299231491	0.00460784912109375	1.03912353515625
559	1.03759765625	30.4633299230875	0.00455596923828125	1.03668212890625
560	1.03515625	30.4877299230259	0.00450225830078125	1.033935546875
561	1.03271484375	30.5121299229643	0.00444549560546875	1.03179931640625
562	1.0302734375	30.5365299229027	0.00438629150390625	1.02935791015625
563	1.02783203125	30.5609299228411	0.0043243408203125	1.02691650390625
564	1.025390625	30.5853299227795	0.004259033203125	1.0247802734375
565	1.02294921875	30.6097299227179	0.00419158935546875	1.0223388671875
566	1.0205078125	30.6341299226563	0.0041217041015625	1.0198974609375
567	1.01806640625	30.6585299225947	0.00404998779296875	1.01715087890625
568	1.015625	30.682929922533	0.00397674560546875	1.014404296875
569	1.01318359375	30.7073299224714	0.00390106201171875	1.01226806640625
570	1.0107421875	30.7317299224098	0.0038250732421875	1.00982666015625
571	1.00830078125	30.7561299223482	0.003748779296875	1.00738525390625
572	1.005859375	30.7805299222866	0.0036724853515625	1.0052490234375
573	1.00341796875	30.804929922225	0.00359588623046875	1.00250244140625
574	1.0009765625	30.8293299221634	0.0035198974609375	1.00006103515625
575	0.99853515625	30.8537299221018	0.0034442138671875	0.997314453125
576	0.99609375	30.8781299220402	0.00336883544921875	0.9954833984375
577	0.99365234375	30.9025299219786	0.003294677734375	0.992431640625
578	0.9912109375	30.926929921917	0.00322021484375	0.9906005859375
579	0.98876953125	30.9513299218554	0.0031475830078125	0.9881591796875
580	0.986328125	30.9757299217938	0.003076171875	0.98541259765625
581	0.98388671875	31.0001299217322	0.00300506591796875	0.98358154296875
582	0.9814453125	31.0245299216706	0.0029345703125	0.98114013671875
583	0.97900390625	31.048929921609	0.002864990234375	0.97808837890625
584	0.9765625	31.0733299215474	0.0027960205078125	0.97564697265625
585	0.97412109375	31.0977299214858	0.00272918701171875	0.9735107421875
586	0.9716796875	31.1221299214242	0.00266265869140625	0.97076416015625
587	0.96923828125	31.1465299213626	0.00259765625	0.96832275390625
588	0.966796875	31.170929921301	0.002532958984375	0.965576171875
589	0.96435546875	31.1953299212394	0.002470703125	0.96405029296875
590	0.9619140625	31.2197299211778	0.002408447265625	0.96099853515625
591	0.95947265625	31.2441299211162	0.00234771728515625	0.9588623046875
592	0.95703125	31.2685299210546	0.00228790283203125	0.95611572265625
593	0.95458984375	31.2929299209929	0.00222869873046875	0.953369140625
594	0.9521484375	31.3173299209313	0.002171630859375	0.9515380859375
595	0.94970703125	31.3417299208697	0.00211517333984375	0.94879150390625
596	0.947265625	31.3661299208081	0.002059326171875	0.94635009765625
597	0.94482421875	31.3905299207465	0.002005615234375	0.94390869140625
598	0.9423828125	31.4149299206849	0.00195220947265625	0.9417724609375
599	0.93994140625	31.4393299206233	0.00190032958984375	0.9393310546875
600	0.9375	31.4637299205617	0.00184906005859375	0.93658447265625
601	0.93505859375	31.4881299205001	0.00179931640625	0.93414306640625
602	0.9326171875	31.5125299204385	0.0017510986328125	0.9320068359375
603	0.93017578125	31.5369299203769	0.00170501708984375	0.92987060546875
604	0.927734375	31.5613299203153	0.00165924072265625	0.92681884765625
605	0.92529296875	31.5857299202537	0.00161376953125	0.92437744140625
606	0.9228515625	31.6101299201921	0.00157073974609375	0.92254638671875
607	0.92041015625	31.6345299201305	0.00152801513671875	0.91949462890625
608	0.91796875	31.6589299200689	0.00148590087890625	0.9173583984375
609	0.91552734375	31.6833299200073	0.00144561767578125	0.9149169921875
610	0.9130859375	31.7077299199457	0.00140625	0.91217041015625
611	0.91064453125	31.7321299198841	0.00136749267578125	0.91033935546875
612	0.908203125	31.7565299198225	0.0013299560546875	0.90728759765625
613	0.90576171875	31.7809299197609	0.0012945556640625	0.9051513671875
614	0.9033203125	31.8053299196993	0.00125885009765625	0.90240478515625
615	0.90087890625	31.8297299196377	0.0012255859375	0.89996337890625
616	0.8984375	31.8541299195761	0.0011932373046875	0.897216796875
617	0.89599609375	31.8785299195144	0.001160888671875	0.89508056640625
618	0.8935546875	31.9029299194528	0.00113067626953125	0.89263916015625
619	0.89111328125	31.9273299193912	0.00110015869140625	0.8905029296875
620	0.888671875	31.9517299193296	0.00107147216796875	0.8880615234375
621	0.88623046875	31.976129919268	0.00104248046875	0.885009765625
622	0.8837890625	32.0005299192064	0.0010150146484375	0.88287353515625
623	0.88134765625	32.0249299191448	0.00098968505859375	0.88104248046875
624	0.87890625	32.0493299190832	0.00096466064453125	0.87799072265625
625	0.87646484375	32.0737299190216	0.000938720703125	0.8758544921875
626	0.8740234375	32.09812991896	0.00091583251953125	0.872802734375
627	0.87158203125	32.1225299188984	0.0008935546875	0.87066650390625
628	0.869140625	32.1469299188368	0.00087158203125	0.8685302734375
629	0.86669921875	32.1713299187752	0.00085052490234375	0.865478515625
630	0.8642578125	32.1957299187136	0.00083038330078125	0.86273193359375
631	0.86181640625	32.220129918652	0.000809326171875	0.86090087890625
632	0.859375	32.2445299185904	0.0007904052734375	0.85906982421875
633	0.85693359375	32.2689299185288	0.00077117919921875	0.85662841796875
634	0.8544921875	32.2933299184672	0.000753173828125	0.8538818359375
635	0.85205078125	32.3177299184056	0.00073577880859375	0.85113525390625
636	0.849609375	32.342129918344	0.00071868896484375	0.848388671875
637	0.84716796875	32.3665299182824	0.00070281982421875	0.8465576171875
638	0.8447265625	32.3909299182208	0.0006878662109375	0.843505859375
639	0.84228515625	32.4153299181592	0.0006732177734375	0.84136962890625
640	0.83984375	32.4397299180976	0.000657958984375	0.8392333984375
641	0.83740234375	32.464129918036	0.00064422607421875	0.836181640625
642	0.8349609375	32.4885299179743	0.00063018798828125	0.8343505859375
643	0.83251953125	32.5129299179127	0.00061737060546875	0.8319091796875
644	0.830078125	32.5373299178511	0.0006048583984375	0.8294677734375
645	0.82763671875	32.5617299177895	0.00059234619140625	0.8270263671875
646	0.8251953125	32.5861299177279	0.000579833984375	0.82427978515625
647	0.82275390625	32.6105299176663	0.0005682373046875	0.8221435546875
648	0.8203125	32.6349299176047	0.00055694580078125	0.82000732421875
649	0.81787109375	32.6593299175431	0.000545654296875	0.816650390625
650	0.8154296875	32.6837299174815	0.00053466796875	0.8148193359375
651	0.81298828125	32.7081299174199	0.00052398681640625	0.81207275390625
652	0.810546875	32.7325299173583	0.00051483154296875	0.80963134765625
653	0.80810546875	32.7569299172967	0.0005047607421875	0.8074951171875
654	0.8056640625	32.7813299172351	0.0004937744140625	0.804443359375
655	0.80322265625	32.8057299171735	0.00048516845703125	0.80230712890625
656	0.80078125	32.8301299171119	0.000476226806640625	0.799560546875
657	0.79833984375	32.8545299170503	0.000467010498046875	0.797119140625
658	0.7958984375	32.8789299169887	0.000459228515625	0.7952880859375
659	0.79345703125	32.9033299169271	0.0004498291015625	0.79254150390625
660	0.791015625	32.9277299168655	0.00044171142578125	0.79010009765625
661	0.78857421875	32.9521299168039	0.00043353271484375	0.78765869140625
662	0.7861328125	32.9765299167423	0.000425994873046875	0.78521728515625
663	0.78369140625	33.0009299166807	0.00041839599609375	0.7830810546875
664	0.78125	33.0253299166191	0.000409698486328125	0.7806396484375
665	0.77880859375	33.0497299165575	0.00040283203125	0.777587890625
666	0.7763671875	33.0741299164958	0.0003955078125	0.77545166015625
667	0.77392578125	33.0985299164342	0.0003885498046875	0.7733154296875
668	0.771484375	33.1229299163726	0.0003828125	0.77117919921875
669	0.76904296875	33.147329916311	0.00037603759765625	0.76812744140625
670	0.7666015625	33.1717299162494	0.000368988037109375	0.76568603515625
671	0.76416015625	33.1961299161878	0.000363372802734375	0.7635498046875
672	0.76171875	33.2205299161262	0.000357452392578125	0.7611083984375
673	0.75927734375	33.2449299160646	0.000350311279296875	0.7586669921875
674	0.7568359375	33.269329916003	0.00034521484375	0.7562255859375
675	0.75439453125	33.2937299159414	0.000339202880859375	0.75347900390625
676	0.751953125	33.3181299158798	0.000333892822265625	0.7513427734375
677	0.74951171875	33.3425299158182	0.000329132080078125	0.74932861328125
678	0.7470703125	33.3669299157566	0.000323883056640625	0.746826171875
679	0.74462890625	33.391329915695	0.000318450927734375	0.74444580078125
680	0.7421875	33.4157299156334	0.00031268310546875	0.74200439453125
681	0.73974609375	33.4401299155718	0.00030810546875	0.739532470703125
682	0.7373046875	33.4645299155102	0.00030230712890625	0.73712158203125
683	0.73486328125	33.4889299154486	0.00029803466796875	0.73468017578125
684	0.732421875	33.513329915387	0.000294036865234375	0.732208251953125
685	0.72998046875	33.5377299153254	0.00028875732421875	0.729827880859375
686	0.7275390625	33.5621299152638	0.000284210205078125	0.727386474609375
687	0.72509765625	33.5865299152022	0.000278533935546875	0.72491455078125
688	0.72265625	33.6109299151406	0.000274078369140625	0.722503662109375
689	0.72021484375	33.635329915079	0.000269805908203125	0.720001220703125
690	0.7177734375	33.6597299150174	0.000266204833984375	0.71759033203125
691	0.71533203125	33.6841299149557	0.000261474609375	0.7152099609375
692	0.712890625	33.7085299148941	0.00025677490234375	0.71270751953125
693	0.71044921875	33.7329299148325	0.000253509521484375	0.710205078125
694	0.7080078125	33.7573299147709	0.000249237060546875	0.70782470703125
695	0.70556640625	33.7817299147093	0.000245635986328125	0.705352783203125
696	0.703125	33.8061299146477	0.0002403564453125	0.702911376953125
697	0.70068359375	33.8305299145861	0.000236663818359375	0.70050048828125
698	0.6982421875	33.8549299145245	0.00023382568359375	0.698089599609375
699	0.69580078125	33.8793299144629	0.0002301025390625	0.69561767578125
700	0.693359375	33.9037299144013	0.00022637939453125	0.693145751953125
701	0.69091796875	33.9281299143397	0.00022265625	0.6907958984375
702	0.6884765625	33.9525299142781	0.000220001220703125	0.68829345703125
703	0.68603515625	33.9769299142165	0.0002166748046875	0.6859130859375
704	0.68359375	34.0013299141549	0.000212188720703125	0.68341064453125
705	0.68115234375	34.0257299140933	0.000209625244140625	0.6810302734375
706	0.6787109375	34.0501299140317	0.00020611572265625	0.678558349609375
707	0.67626953125	34.0745299139701	0.0002020263671875	0.676177978515625
708	0.673828125	34.0989299139085	0.00019873046875	0.6737060546875
709	0.67138671875	34.1233299138469	0.000195709228515625	0.6712646484375
710	0.6689453125	34.1477299137853	0.000192779541015625	0.668792724609375
711	0.66650390625	34.1721299137237	0.000188995361328125	0.6663818359375
712	0.6640625	34.1965299136621	0.000186553955078125	0.6639404296875
713	0.66162109375	34.2209299136005	0.0001834716796875	0.661468505859375
714	0.6591796875	34.2453299135389	0.000180877685546875	0.659088134765625
715	0.65673828125	34.2697299134772	0.000177703857421875	0.656585693359375
716	0.654296875	34.2941299134156	0.000175933837890625	0.6541748046875
717	0.65185546875	34.318529913354	0.00017279052734375	0.651763916015625
718	0.6494140625	34.3429299132924	0.000169921875	0.64935302734375
719	0.64697265625	34.3673299132308	0.00016778564453125	0.6468505859375
720	0.64453125	34.3917299131692	0.000164947509765625	0.644439697265625
721	0.64208984375	34.4161299131076	0.00016302490234375	0.64190673828125
722	0.6396484375	34.440529913046	0.00016021728515625	0.639556884765625
723	0.63720703125	34.4649299129844	0.00015753173828125	0.637054443359375
724	0.634765625	34.4893299129228	0.000155303955078125	0.6346435546875
725	0.63232421875	34.5137299128612	0.00015301513671875	0.632232666015625
726	0.6298828125	34.5381299127996	0.00015106201171875	0.629791259765625
727	0.62744140625	34.562529912738	0.000149993896484375	0.627349853515625
728	0.625	34.5869299126764	0.000147705078125	0.624969482421875
729	0.62255859375	34.6113299126148	0.000144744873046875	0.6224365234375
730	0.6201171875	34.6357299125532	0.000142486572265625	0.62005615234375
731	0.61767578125	34.6601299124916	0.000140625	0.6175537109375
732	0.615234375	34.68452991243	0.000137939453125	0.615203857421875
733	0.61279296875	34.7089299123684	0.00013580322265625	0.612701416015625
734	0.6103515625	34.7333299123068	0.00013409423828125	0.61029052734375
735	0.60791015625	34.7577299122452	0.000132720947265625	0.607757568359375
736	0.60546875	34.7821299121836	0.000129974365234375	0.605255126953125
737	0.60302734375	34.806529912122	0.000127685546875	0.60296630859375
738	0.6005859375	34.8309299120604	0.000126190185546875	0.600494384765625
739	0.59814453125	34.8553299119988	0.000125	0.59808349609375
740	0.595703125	34.8797299119371	0.00012353515625	0.595672607421875
741	0.59326171875	34.9041299118755	0.00012176513671875	0.59320068359375
742	0.5908203125	34.9285299118139	0.00011932373046875	0.590728759765625
743	0.58837890625	34.9529299117523	0.000117523193359375	0.58831787109375
744	0.5859375	34.9773299116907	0.00011639404296875	0.585845947265625
745	0.58349609375	35.0017299116291	0.000115386962890625	0.58343505859375
746	0.5810546875	35.0261299115675	0.00011328125	0.58099365234375
747	0.57861328125	35.0505299115059	0.000112640380859375	0.578521728515625
748	0.576171875	35.0749299114443	0.00011181640625	0.576141357421875
749	0.57373046875	35.0993299113827	0.00011029052734375	0.57366943359375
750	0.5712890625	35.1237299113211	0.00010906982421875	0.57122802734375
751	0.56884765625	35.1481299112595	0.0001070556640625	0.56884765625
752	0.56640625	35.1725299111979	0.000106109619140625	0.56640625
753	0.56396484375	35.1969299111363	0.00010418701171875	0.56396484375
754	0.5615234375	35.2213299110747	0.000103424072265625	0.561492919921875
755	0.55908203125	35.2457299110131	0.000102264404296875	0.559051513671875
756	0.556640625	35.2701299109515	0.0001002197265625	0.556640625
757	0.55419921875	35.2945299108899	9.9273681640625E-05	0.554168701171875
758	0.5517578125	35.3189299108283	9.814453125E-05	0.55169677734375
759	0.54931640625	35.3433299107667	9.6893310546875E-05	0.54925537109375
760	0.546875	35.3677299107051	9.515380859375E-05	0.546844482421875
761	0.54443359375	35.3921299106435	9.4573974609375E-05	0.54437255859375
762	0.5419921875	35.4165299105819	9.3414306640625E-05	0.54168701171875
763	0.53955078125	35.4409299105203	9.2681884765625E-05	0.539306640625
764	0.537109375	35.4653299104586	9.1156005859375E-05	0.53692626953125
765	0.53466796875	35.489729910397	9.0301513671875E-05	0.5345458984375
766	0.5322265625	35.5141299103354	8.990478515625E-05	0.53204345703125
767	0.52978515625	35.5385299102738	8.837890625E-05	0.529632568359375
768	0.52734375	35.5629299102122	8.6761474609375E-05	0.52716064453125
769	0.52490234375	35.5873299101506	8.65478515625E-05	0.524749755859375
770	0.5224609375	35.611729910089	8.544921875E-05	0.522247314453125
771	0.52001953125	35.6361299100274	8.477783203125E-05	0.51983642578125
772	0.517578125	35.6605299099658	8.4564208984375E-05	0.51739501953125
773	0.51513671875	35.6849299099042	8.2916259765625E-05	0.51495361328125
774	0.5126953125	35.7093299098426	8.221435546875E-05	0.512542724609375
775	0.51025390625	35.733729909781	8.10546875E-05	0.5101318359375
776	0.5078125	35.7581299097194	8.02001953125E-05	0.5076904296875
777	0.50537109375	35.7825299096578	7.904052734375E-05	0.5052490234375
778	0.5029296875	35.8069299095962	7.843017578125E-05	0.5028076171875
779	0.50048828125	35.8313299095346	7.733154296875E-05	0.500335693359375
780	0.498046875	35.855729909473	7.6416015625E-05	0.4979248046875
781	0.49560546875	35.8801299094114	7.6507568359375E-05	0.49542236328125
782	0.4931640625	35.9045299093498	7.574462890625E-05	0.493011474609375
783	0.49072265625	35.9289299092882	7.470703125E-05	0.49053955078125
784	0.48828125	35.9533299092266	7.43408203125E-05	0.488128662109375
785	0.48583984375	35.977729909165	7.33642578125E-05	0.4857177734375
786	0.4833984375	36.0021299091034	7.257080078125E-05	0.483245849609375
787	0.48095703125	36.0265299090418	7.1807861328125E-05	0.4808349609375
788	0.478515625	36.0509299089802	7.1502685546875E-05	0.4783935546875
789	0.47607421875	36.0753299089185	7.0465087890625E-05	0.475982666015625
790	0.4736328125	36.0997299088569	6.988525390625E-05	0.4735107421875
791	0.47119140625	36.1241299087953	6.9244384765625E-05	0.4710693359375
792	0.46875	36.1485299087337	6.8634033203125E-05	0.4686279296875
793	0.46630859375	36.1729299086721	6.793212890625E-05	0.4661865234375
794	0.4638671875	36.1973299086105	6.732177734375E-05	0.463714599609375
795	0.46142578125	36.2217299085489	6.7230224609375E-05	0.4613037109375
796	0.458984375	36.2461299084873	6.55517578125E-05	0.4588623046875
797	0.45654296875	36.2705299084257	6.5032958984375E-05	0.4564208984375
798	0.4541015625	36.2949299083641	6.4605712890625E-05	0.454010009765625
799	0.45166015625	36.3193299083025	6.45751953125E-05	0.451629638671875
800	0.44921875	36.3437299082409	6.3751220703125E-05	0.4490966796875
801	0.44677734375	36.3681299081793	6.33544921875E-05	0.446624755859375
802	0.4443359375	36.3925299081177	6.28662109375E-05	0.4442138671875
803	0.44189453125	36.4169299080561	6.1920166015625E-05	0.441741943359375
804	0.439453125	36.4413299079945	6.170654296875E-05	0.439300537109375
805	0.43701171875	36.4657299079329	6.0821533203125E-05	0.436920166015625
806	0.4345703125	36.4901299078713	6.06689453125E-05	0.4344482421875
807	0.43212890625	36.5145299078097	5.963134765625E-05	0.431976318359375
808	0.4296875	36.5389299077481	5.9478759765625E-05	0.429534912109375
809	0.42724609375	36.5633299076865	5.9112548828125E-05	0.4271240234375
810	0.4248046875	36.5877299076249	5.8319091796875E-05	0.424713134765625
811	0.42236328125	36.6121299075633	5.72509765625E-05	0.422271728515625
812	0.419921875	36.6365299075017	5.7098388671875E-05	0.4197998046875
813	0.41748046875	36.66092990744	5.7464599609375E-05	0.417388916015625
814	0.4150390625	36.6853299073784	5.6884765625E-05	0.414947509765625
815	0.41259765625	36.7097299073168	5.7220458984375E-05	0.4124755859375
816	0.41015625	36.7341299072552	5.6243896484375E-05	0.410003662109375
817	0.40771484375	36.7585299071936	5.5450439453125E-05	0.4075927734375
818	0.4052734375	36.782929907132	5.50537109375E-05	0.405181884765625
819	0.40283203125	36.8073299070704	5.4168701171875E-05	0.402740478515625
820	0.400390625	36.8317299070088	5.4351806640625E-05	0.400299072265625
821	0.39794921875	36.8561299069472	5.4107666015625E-05	0.397796630859375
822	0.3955078125	36.8805299068856	5.3619384765625E-05	0.3953857421875
823	0.39306640625	36.904929906824	5.31005859375E-05	0.392974853515625
824	0.390625	36.9293299067624	5.2337646484375E-05	0.3905029296875
825	0.38818359375	36.9537299067008	5.181884765625E-05	0.38812255859375
826	0.3857421875	36.9781299066392	5.13916015625E-05	0.38568115234375
827	0.38330078125	37.0025299065776	5.1055908203125E-05	0.383209228515625
828	0.380859375	37.026929906516	5.0537109375E-05	0.380828857421875
829	0.37841796875	37.0513299064544	4.99267578125E-05	0.378326416015625
830	0.3759765625	37.0757299063928	4.967041015625E-05	0.37591552734375
831	0.37353515625	37.1001299063312	4.88189697265625E-05	0.373443603515625
832	0.37109375	37.1245299062696	4.8175048828125E-05	0.371002197265625
833	0.36865234375	37.148929906208	4.830322265625E-05	0.36859130859375
834	0.3662109375	37.1733299061464	4.808349609375E-05	0.366119384765625
835	0.36376953125	37.1977299060848	4.74212646484375E-05	0.363677978515625
836	0.361328125	37.2221299060232	4.73724365234375E-05	0.36126708984375
837	0.35888671875	37.2465299059616	4.70947265625E-05	0.35882568359375
838	0.3564453125	37.2709299058999	4.70550537109375E-05	0.356353759765625
839	0.35400390625	37.2953299058383	4.64447021484375E-05	0.353912353515625
840	0.3515625	37.3197299057767	4.64447021484375E-05	0.35150146484375
841	0.34912109375	37.3441299057151	4.5556640625E-05	0.34906005859375
842	0.3466796875	37.3685299056535	4.54071044921875E-05	0.346588134765625
843	0.34423828125	37.3929299055919	4.48394775390625E-05	0.344207763671875
844	0.341796875	37.4173299055303	4.4281005859375E-05	0.341796875
845	0.33935546875	37.4417299054687	4.3804931640625E-05	0.33929443359375
846	0.3369140625	37.4661299054071	4.356689453125E-05	0.336822509765625
847	0.33447265625	37.4905299053455	4.32281494140625E-05	0.3343505859375
848	0.33203125	37.5149299052839	4.22637939453125E-05	0.3319091796875
849	0.32958984375	37.5393299052223	4.222412109375E-05	0.32952880859375
850	0.3271484375	37.5637299051607	4.1693115234375E-05	0.3271484375
851	0.32470703125	37.5881299050991	4.1583251953125E-05	0.3245849609375
852	0.322265625	37.6125299050375	4.15069580078125E-05	0.32220458984375
853	0.31982421875	37.6369299049759	4.09454345703125E-05	0.31976318359375
854	0.3173828125	37.6613299049143	4.07958984375E-05	0.3173828125
855	0.31494140625	37.6857299048527	4.06158447265625E-05	0.3148193359375
856	0.3125	37.7101299047911	3.96575927734375E-05	0.312408447265625
857	0.31005859375	37.7345299047295	3.91510009765625E-05	0.3099365234375
858	0.3076171875	37.7589299046679	3.92913818359375E-05	0.307525634765625
859	0.30517578125	37.7833299046063	3.93463134765625E-05	0.305145263671875
860	0.302734375	37.8077299045447	3.85284423828125E-05	0.302642822265625
861	0.30029296875	37.8321299044831	3.8580322265625E-05	0.300201416015625
862	0.2978515625	37.8565299044214	3.81744384765625E-05	0.29779052734375
863	0.29541015625	37.8809299043598	3.78631591796875E-05	0.295379638671875
864	0.29296875	37.9053299042982	3.7109375E-05	0.292877197265625
865	0.29052734375	37.9297299042366	3.68927001953125E-05	0.290496826171875
866	0.2880859375	37.954129904175	3.6767578125E-05	0.288055419921875
867	0.28564453125	37.9785299041134	3.6431884765625E-05	0.285614013671875
868	0.283203125	38.0029299040518	3.64471435546875E-05	0.28314208984375
869	0.28076171875	38.0273299039902	3.5693359375E-05	0.28076171875
870	0.2783203125	38.0517299039286	3.5589599609375E-05	0.27825927734375
871	0.27587890625	38.076129903867	3.5235595703125E-05	0.27581787109375
872	0.2734375	38.1005299038054	3.4881591796875E-05	0.273406982421875
873	0.27099609375	38.1249299037438	3.49700927734375E-05	0.270965576171875
874	0.2685546875	38.1493299036822	3.4600830078125E-05	0.26849365234375
875	0.26611328125	38.1737299036206	3.46527099609375E-05	0.26605224609375
876	0.263671875	38.198129903559	3.4210205078125E-05	0.26361083984375
877	0.26123046875	38.2225299034974	3.39385986328125E-05	0.261199951171875
878	0.2587890625	38.2469299034358	3.32366943359375E-05	0.25872802734375
879	0.25634765625	38.2713299033742	3.27850341796875E-05	0.256317138671875
880	0.25390625	38.2957299033126	3.27301025390625E-05	0.25384521484375
881	0.25146484375	38.320129903251	3.21746826171875E-05	0.25140380859375
882	0.2490234375	38.3445299031894	3.1610107421875E-05	0.248992919921875
883	0.24658203125	38.3689299031278	3.15948486328125E-05	0.246551513671875
884	0.244140625	38.3933299030662	3.0804443359375E-05	0.244110107421875
885	0.24169921875	38.4177299030046	3.07891845703125E-05	0.241668701171875
886	0.2392578125	38.442129902943	3.02490234375E-05	0.239227294921875
887	0.23681640625	38.4665299028813	3.00537109375E-05	0.236785888671875
888	0.234375	38.4909299028197	2.979736328125E-05	0.234283447265625
889	0.23193359375	38.5153299027581	2.92510986328125E-05	0.231842041015625
890	0.2294921875	38.5397299026965	2.908935546875E-05	0.22943115234375
891	0.22705078125	38.5641299026349	2.8399658203125E-05	0.22705078125
892	0.224609375	38.5885299025733	2.82470703125E-05	0.224578857421875
893	0.22216796875	38.6129299025117	2.7777099609375E-05	0.22216796875
894	0.2197265625	38.6373299024501	2.734375E-05	0.219696044921875
895	0.21728515625	38.6617299023885	2.71331787109375E-05	0.21728515625
896	0.21484375	38.6861299023269	2.70263671875E-05	0.214813232421875
897	0.21240234375	38.7105299022653	2.6708984375E-05	0.212371826171875
898	0.2099609375	38.7349299022037	2.65045166015625E-05	0.2099609375
899	0.20751953125	38.7593299021421	2.606201171875E-05	0.20745849609375
900	0.205078125	38.7837299020805	2.57354736328125E-05	0.205047607421875
901	0.20263671875	38.8081299020189	2.54486083984375E-05	0.20263671875
902	0.2001953125	38.8325299019573	2.5128173828125E-05	0.20013427734375
903	0.19775390625	38.8569299018957	2.50213623046875E-05	0.197723388671875
904	0.1953125	38.8813299018341	2.46612548828125E-05	0.1953125
905	0.19287109375	38.9057299017725	2.42523193359375E-05	0.19287109375
906	0.1904296875	38.9301299017109	2.37335205078125E-05	0.1904296875
907	0.18798828125	38.9545299016493	2.31719970703125E-05	0.18798828125
908	0.185546875	38.9789299015877	2.29583740234375E-05	0.185546875
909	0.18310546875	39.0033299015261	2.25982666015625E-05	0.18316650390625
910	0.1806640625	39.0277299014645	2.242431640625E-05	0.180633544921875
911	0.17822265625	39.0521299014029	2.19879150390625E-05	0.17822265625
912	0.17578125	39.0765299013412	2.1697998046875E-05	0.17578125
913	0.17333984375	39.1009299012796	2.1307373046875E-05	0.173309326171875
914	0.1708984375	39.125329901218	2.10479736328125E-05	0.170867919921875
915	0.16845703125	39.1497299011564	2.0953369140625E-05	0.16845703125
916	0.166015625	39.1741299010948	2.06329345703125E-05	0.165985107421875
917	0.16357421875	39.1985299010332	2.01446533203125E-05	0.16357421875
918	0.1611328125	39.2229299009716	1.9732666015625E-05	0.161163330078125
919	0.15869140625	39.24732990091	1.9390869140625E-05	0.15869140625
920	0.15625	39.2717299008484	1.915283203125E-05	0.15625
921	0.15380859375	39.2961299007868	1.90704345703125E-05	0.153839111328125
922	0.1513671875	39.3205299007252	1.84661865234375E-05	0.151397705078125
923	0.14892578125	39.3449299006636	1.8194580078125E-05	0.148956298828125
924	0.146484375	39.369329900602	1.80328369140625E-05	0.146514892578125
925	0.14404296875	39.3937299005404	1.75933837890625E-05	0.144073486328125
926	0.1416015625	39.4181299004788	1.72698974609375E-05	0.141571044921875
927	0.13916015625	39.4425299004172	1.67572021484375E-05	0.13916015625
928	0.13671875	39.4669299003556	1.666259765625E-05	0.136749267578125
929	0.13427734375	39.491329900294	1.63818359375E-05	0.134307861328125
930	0.1318359375	39.5157299002324	1.6021728515625E-05	0.13189697265625
931	0.12939453125	39.5401299001708	1.56890869140625E-05	0.12945556640625
932	0.126953125	39.5645299001092	1.541748046875E-05	0.126953125
933	0.12451171875	39.5889299000476	1.50146484375E-05	0.12457275390625
934	0.1220703125	39.613329899986	1.4898681640625E-05	0.1220703125
935	0.11962890625	39.6377298999244	1.44073486328125E-05	0.11968994140625
936	0.1171875	39.6621298998627	1.43157958984375E-05	0.11724853515625
937	0.11474609375	39.6865298998011	1.3909912109375E-05	0.11474609375
938	0.1123046875	39.7109298997395	1.35833740234375E-05	0.11236572265625
939	0.10986328125	39.7353298996779	1.3507080078125E-05	0.10992431640625
940	0.107421875	39.7597298996163	1.3201904296875E-05	0.10748291015625
941	0.10498046875	39.7841298995547	1.278076171875E-05	0.10498046875
942	0.1025390625	39.8085298994931	1.25762939453125E-05	0.10260009765625
943	0.10009765625	39.8329298994315	1.22833251953125E-05	0.100128173828125
944	0.09765625	39.8573298993699	1.20391845703125E-05	0.097686767578125
945	0.09521484375	39.8817298993083	1.1761474609375E-05	0.09527587890625
946	0.0927734375	39.9061298992467	1.146240234375E-05	0.092803955078125
947	0.09033203125	39.9305298991851	1.119384765625E-05	0.090423583984375
948	0.087890625	39.9549298991235	1.0723876953125E-05	0.087860107421875
949	0.08544921875	39.9793298990619	1.04522705078125E-05	0.085479736328125
950	0.0830078125	40.0037298990003	1.01837158203125E-05	0.0830078125
951	0.08056640625	40.0281298989387	9.97314453125E-06	0.08056640625
952	0.078125	40.0525298988771	9.5947265625E-06	0.078155517578125
953	0.07568359375	40.0769298988155	9.2437744140625E-06	0.075714111328125
954	0.0732421875	40.1013298987539	8.929443359375E-06	0.07330322265625
955	0.07080078125	40.1257298986923	8.740234375E-06	0.070831298828125
956	0.068359375	40.1501298986307	8.3984375E-06	0.0682373046875
957	0.06591796875	40.1745298985691	8.0108642578125E-06	0.065826416015625
958	0.0634765625	40.1989298985075	7.659912109375E-06	0.06341552734375
959	0.06103515625	40.2233298984459	7.354736328125E-06	0.061004638671875
960	0.05859375	40.2477298983843	7.0068359375E-06	0.05853271484375
961	0.05615234375	40.2721298983226	6.689453125E-06	0.05609130859375
962	0.0537109375	40.296529898261	6.439208984375E-06	0.0535888671875
963	0.05126953125	40.3209298981994	6.1248779296875E-06	0.051177978515625
964	0.048828125	40.3453298981378	5.8441162109375E-06	0.048968505859375
965	0.04638671875	40.3697298980762	5.5450439453125E-06	0.0465118408203125
966	0.0439453125	40.3941298980146	5.3497314453125E-06	0.0440826416015625
967	0.04150390625	40.418529897953	4.9896240234375E-06	0.0416473388671875
968	0.0390625	40.4429298978914	4.66827392578125E-06	0.0392120361328125
969	0.03662109375	40.4673298978298	4.34417724609375E-06	0.036761474609375
970	0.0341796875	40.4917298977682	4.0576171875E-06	0.0343353271484375
971	0.03173828125	40.5161298977066	3.77655029296875E-06	0.0318695068359375
972	0.029296875	40.540529897645	3.5260009765625E-06	0.0294281005859375
973	0.02685546875	40.5649298975834	3.20404052734375E-06	0.0270050048828125
974	0.0244140625	40.5893298975218	2.92510986328125E-06	0.0245635986328125
975	0.02197265625	40.6137298974602	2.64312744140625E-06	0.022119140625
976	0.01953125	40.6381298973986	2.34832763671875E-06	0.0196624755859375
977	0.01708984375	40.662529897337	2.03887939453125E-06	0.0172271728515625
978	0.0146484375	40.6869298972754	1.728515625E-06	0.014788818359375
979	0.01220703125	40.7113298972138	1.46209716796875E-06	0.012371826171875
980	0.009765625	40.7357298971522	1.18194580078125E-06	0.00989990234375
981	0.00732421875	40.7601298970906	8.7432861328125E-07	0.007464599609375
982	0.0048828125	40.784529897029	5.755615234375E-07	0.00502929687500001
983	0.00244140625	40.8089298969674	2.95745849609375E-07	0.0025909423828125
984	0	40.8333298969058	7.9345703125E-09	0.000158691406249994
985	0.00244140625	40.8577298968441	2.96478271484375E-07	0.00260314941406251
986	0.0048828125	40.8821298967825	5.76171875E-07	0.0050018310546875
