Index	Potential applied (V)	Time (s)	WE(1).Current (A)	WE(1).Potential (V)
1	0.00244140625	238.312233398319	-0.0017266845703125	0.002685546875
2	0.0048828125	238.336633398258	-0.00168182373046875	0.0050506591796875
3	0.00732421875	238.361033398196	-0.00171844482421875	0.00751647949218751
4	0.009765625	238.385433398135	-0.00170013427734375	0.0099365234375
5	0.01220703125	238.409833398073	-0.0017010498046875	0.01236572265625
6	0.0146484375	238.434233398011	-0.00171173095703125	0.014849853515625
7	0.01708984375	238.45863339795	-0.00168914794921875	0.0172393798828125
8	0.01953125	238.483033397888	-0.00172821044921875	0.01973876953125
9	0.02197265625	238.507433397827	-0.00168121337890625	0.022137451171875
10	0.0244140625	238.531833397765	-0.00172515869140625	0.02467041015625
11	0.02685546875	238.556233397703	-0.0016790771484375	0.0270172119140625
12	0.029296875	238.580633397642	-0.00171966552734375	0.029461669921875
13	0.03173828125	238.60503339758	-0.00169586181640625	0.0318939208984375
14	0.0341796875	238.629433397519	-0.00170196533203125	0.0342987060546875
15	0.03662109375	238.653833397457	-0.00170745849609375	0.036798095703125
16	0.0390625	238.678233397395	-0.00168914794921875	0.0392181396484375
17	0.04150390625	238.702633397334	-0.0017242431640625	0.0417144775390625
18	0.0439453125	238.727033397272	-0.0016790771484375	0.044097900390625
19	0.04638671875	238.751433397211	-0.001722412109375	0.0466522216796875
20	0.048828125	238.775833397149	-0.0016741943359375	0.048992919921875
21	0.05126953125	238.800233397087	-0.00171630859375	0.05157470703125
22	0.0537109375	238.824633397026	-0.001688232421875	0.054046630859375
23	0.05615234375	238.849033396964	-0.00169769287109375	0.056427001953125
24	0.05859375	238.873433396903	-0.00169952392578125	0.058837890625
25	0.06103515625	238.897833396841	-0.00168426513671875	0.061248779296875
26	0.0634765625	238.922233396779	-0.00171661376953125	0.063812255859375
27	0.06591796875	238.946633396718	-0.00167327880859375	0.066162109375
28	0.068359375	238.971033396656	-0.00171600341796875	0.068695068359375
29	0.07080078125	238.995433396595	-0.00166748046875	0.071075439453125
30	0.0732421875	239.019833396533	-0.00171295166015625	0.07354736328125
31	0.07568359375	239.044233396471	-0.00167999267578125	0.07598876953125
32	0.078125	239.06863339641	-0.0016949462890625	0.078369140625
33	0.08056640625	239.093033396348	-0.0016925048828125	0.08087158203125
34	0.0830078125	239.117433396287	-0.00168304443359375	0.083282470703125
35	0.08544921875	239.141833396225	-0.00171173095703125	0.08575439453125
36	0.087890625	239.166233396163	-0.00167236328125	0.088134765625
37	0.09033203125	239.190633396102	-0.00171417236328125	0.090728759765625
38	0.0927734375	239.21503339604	-0.001666259765625	0.093048095703125
39	0.09521484375	239.239433395978	-0.0017138671875	0.09552001953125
40	0.09765625	239.263833395917	-0.00167694091796875	0.097900390625
41	0.10009765625	239.288233395855	-0.00169677734375	0.10040283203125
42	0.1025390625	239.312633395794	-0.00168975830078125	0.10284423828125
43	0.10498046875	239.337033395732	-0.001685791015625	0.105255126953125
44	0.107421875	239.36143339567	-0.00170989990234375	0.1077880859375
45	0.10986328125	239.385833395609	-0.00167388916015625	0.110137939453125
46	0.1123046875	239.410233395547	-0.00171356201171875	0.11260986328125
47	0.11474609375	239.434633395486	-0.001666259765625	0.114990234375
48	0.1171875	239.459033395424	-0.001715087890625	0.11749267578125
49	0.11962890625	239.483433395362	-0.00167388916015625	0.119903564453125
50	0.1220703125	239.507833395301	-0.00169708251953125	0.122344970703125
51	0.12451171875	239.532233395239	-0.00168365478515625	0.124786376953125
52	0.126953125	239.556633395178	-0.00168365478515625	0.127197265625
53	0.12939453125	239.581033395116	-0.00170257568359375	0.129730224609375
54	0.1318359375	239.605433395054	-0.001668701171875	0.13201904296875
55	0.13427734375	239.629833394993	-0.00170562744140625	0.134674072265625
56	0.13671875	239.654233394931	-0.001658935546875	0.13702392578125
57	0.13916015625	239.67863339487	-0.001707763671875	0.139495849609375
58	0.1416015625	239.703033394808	-0.00166290283203125	0.141845703125
59	0.14404296875	239.727433394746	-0.001689453125	0.144256591796875
60	0.146484375	239.751833394685	-0.001671142578125	0.146728515625
61	0.14892578125	239.776233394623	-0.0016766357421875	0.14910888671875
62	0.1513671875	239.800633394562	-0.00169097900390625	0.151611328125
63	0.15380859375	239.8250333945	-0.00166168212890625	0.154022216796875
64	0.15625	239.849433394438	-0.00169647216796875	0.15655517578125
65	0.15869140625	239.873833394377	-0.00165191650390625	0.158935546875
66	0.1611328125	239.898233394315	-0.00170196533203125	0.161407470703125
67	0.16357421875	239.922633394254	-0.00165496826171875	0.163848876953125
68	0.166015625	239.947033394192	-0.0016864013671875	0.1661376953125
69	0.16845703125	239.97143339413	-0.0016644287109375	0.168701171875
70	0.1708984375	239.995833394069	-0.00167633056640625	0.171112060546875
71	0.17333984375	240.020233394007	-0.00168670654296875	0.173583984375
72	0.17578125	240.044633393946	-0.00166290283203125	0.175933837890625
73	0.17822265625	240.069033393884	-0.001695556640625	0.17852783203125
74	0.1806640625	240.093433393822	-0.00165435791015625	0.18084716796875
75	0.18310546875	240.117833393761	-0.0017047119140625	0.183380126953125
76	0.185546875	240.142233393699	-0.001656494140625	0.185791015625
77	0.18798828125	240.166633393638	-0.00169158935546875	0.18817138671875
78	0.1904296875	240.191033393576	-0.0016644287109375	0.190704345703125
79	0.19287109375	240.215433393514	-0.00168121337890625	0.193084716796875
80	0.1953125	240.239833393453	-0.00168609619140625	0.195526123046875
81	0.19775390625	240.264233393391	-0.0016656494140625	0.19793701171875
82	0.2001953125	240.28863339333	-0.0016937255859375	0.200469970703125
83	0.20263671875	240.313033393268	-0.0016546630859375	0.20281982421875
84	0.205078125	240.337433393206	-0.001702880859375	0.205322265625
85	0.20751953125	240.361833393145	-0.00165283203125	0.207794189453125
86	0.2099609375	240.386233393083	-0.001689453125	0.21014404296875
87	0.21240234375	240.410633393021	-0.001656494140625	0.212646484375
88	0.21484375	240.43503339296	-0.00167755126953125	0.215057373046875
89	0.21728515625	240.459433392898	-0.00167724609375	0.21746826171875
90	0.2197265625	240.483833392837	-0.00166107177734375	0.219940185546875
91	0.22216796875	240.508233392775	-0.0016851806640625	0.222412109375
92	0.224609375	240.532633392713	-0.00164886474609375	0.224884033203125
93	0.22705078125	240.557033392652	-0.00169525146484375	0.227325439453125
94	0.2294921875	240.58143339259	-0.00164520263671875	0.22967529296875
95	0.23193359375	240.605833392529	-0.00168426513671875	0.232147216796875
96	0.234375	240.630233392467	-0.00164825439453125	0.234527587890625
97	0.23681640625	240.654633392405	-0.00167449951171875	0.23699951171875
98	0.2392578125	240.679033392344	-0.00166900634765625	0.239501953125
99	0.24169921875	240.703433392282	-0.00165863037109375	0.241912841796875
100	0.244140625	240.727833392221	-0.00167938232421875	0.24444580078125
101	0.24658203125	240.752233392159	-0.00164825439453125	0.246795654296875
102	0.2490234375	240.776633392097	-0.00169403076171875	0.249267578125
103	0.25146484375	240.801033392036	-0.0016455078125	0.25164794921875
104	0.25390625	240.825433391974	-0.0016876220703125	0.254150390625
105	0.25634765625	240.849833391913	-0.00164825439453125	0.256591796875
106	0.2587890625	240.874233391851	-0.0016796875	0.259033203125
107	0.26123046875	240.898633391789	-0.00166961669921875	0.261474609375
108	0.263671875	240.923033391728	-0.00166412353515625	0.263885498046875
109	0.26611328125	240.947433391666	-0.00168121337890625	0.266357421875
110	0.2685546875	240.971833391605	-0.0016534423828125	0.268707275390625
111	0.27099609375	240.996233391543	-0.00169647216796875	0.271270751953125
112	0.2734375	241.020633391481	-0.00164825439453125	0.27362060546875
113	0.27587890625	241.04503339142	-0.00169097900390625	0.276092529296875
114	0.2783203125	241.069433391358	-0.0016485595703125	0.27850341796875
115	0.28076171875	241.093833391297	-0.0016839599609375	0.280975341796875
116	0.283203125	241.118233391235	-0.00166748046875	0.283447265625
117	0.28564453125	241.142633391173	-0.0016668701171875	0.285888671875
118	0.2880859375	241.167033391112	-0.001678466796875	0.288330078125
119	0.29052734375	241.19143339105	-0.00165435791015625	0.29071044921875
120	0.29296875	241.215833390989	-0.001693115234375	0.293212890625
121	0.29541015625	241.240233390927	-0.00164581298828125	0.295654296875
122	0.2978515625	241.264633390865	-0.00168853759765625	0.298126220703125
123	0.30029296875	241.289033390804	-0.00164306640625	0.300567626953125
124	0.302734375	241.313433390742	-0.001680908203125	0.302978515625
125	0.30517578125	241.337833390681	-0.00165863037109375	0.30535888671875
126	0.3076171875	241.362233390619	-0.00166259765625	0.307769775390625
127	0.31005859375	241.386633390557	-0.00166961669921875	0.310302734375
128	0.3125	241.411033390496	-0.001650390625	0.31268310546875
129	0.31494140625	241.435433390434	-0.001685791015625	0.315185546875
130	0.3173828125	241.459833390373	-0.001640625	0.317596435546875
131	0.31982421875	241.484233390311	-0.00168304443359375	0.320068359375
132	0.322265625	241.508633390249	-0.0016357421875	0.32244873046875
133	0.32470703125	241.533033390188	-0.00167724609375	0.324920654296875
134	0.3271484375	241.557433390126	-0.00164947509765625	0.327362060546875
135	0.32958984375	241.581833390065	-0.0016595458984375	0.32977294921875
136	0.33203125	241.606233390003	-0.00166107177734375	0.332275390625
137	0.33447265625	241.630633389941	-0.00164703369140625	0.33465576171875
138	0.3369140625	241.65503338988	-0.001678466796875	0.337188720703125
139	0.33935546875	241.679433389818	-0.00163604736328125	0.339569091796875
140	0.341796875	241.703833389756	-0.00167755126953125	0.342071533203125
141	0.34423828125	241.728233389695	-0.0016302490234375	0.34442138671875
142	0.3466796875	241.752633389633	-0.00167449951171875	0.346893310546875
143	0.34912109375	241.777033389572	-0.00164215087890625	0.34930419921875
144	0.3515625	241.80143338951	-0.00165679931640625	0.351806640625
145	0.35400390625	241.825833389448	-0.00165374755859375	0.354248046875
146	0.3564453125	241.850233389387	-0.001644287109375	0.356658935546875
147	0.35888671875	241.874633389325	-0.00167205810546875	0.359130859375
148	0.361328125	241.899033389264	-0.00163299560546875	0.361541748046875
149	0.36376953125	241.923433389202	-0.00167327880859375	0.36407470703125
150	0.3662109375	241.94783338914	-0.00162567138671875	0.366424560546875
151	0.36865234375	241.972233389079	-0.00167144775390625	0.368896484375
152	0.37109375	241.996633389017	-0.00163421630859375	0.371307373046875
153	0.37353515625	242.021033388956	-0.00165283203125	0.373748779296875
154	0.3759765625	242.045433388894	-0.0016448974609375	0.376220703125
155	0.37841796875	242.069833388832	-0.00164031982421875	0.37860107421875
156	0.380859375	242.094233388771	-0.001663818359375	0.381072998046875
157	0.38330078125	242.118633388709	-0.0016278076171875	0.383514404296875
158	0.3857421875	242.143033388648	-0.00166656494140625	0.385955810546875
159	0.38818359375	242.167433388586	-0.00162017822265625	0.38836669921875
160	0.390625	242.191833388524	-0.00166748046875	0.390869140625
161	0.39306640625	242.216233388463	-0.00162628173828125	0.39324951171875
162	0.3955078125	242.240633388401	-0.0016497802734375	0.3956298828125
163	0.39794921875	242.26503338834	-0.001636962890625	0.398162841796875
164	0.400390625	242.289433388278	-0.00163787841796875	0.40057373046875
165	0.40283203125	242.313833388216	-0.00165618896484375	0.403106689453125
166	0.4052734375	242.338233388155	-0.00162384033203125	0.405487060546875
167	0.40771484375	242.362633388093	-0.00166015625	0.407958984375
168	0.41015625	242.387033388032	-0.00161468505859375	0.410308837890625
169	0.41259765625	242.41143338797	-0.00166259765625	0.412811279296875
170	0.4150390625	242.435833387908	-0.00161834716796875	0.415252685546875
171	0.41748046875	242.460233387847	-0.0016455078125	0.41766357421875
172	0.419921875	242.484633387785	-0.001627197265625	0.420135498046875
173	0.42236328125	242.509033387724	-0.00163360595703125	0.42254638671875
174	0.4248046875	242.533433387662	-0.00164703369140625	0.425048828125
175	0.42724609375	242.5578333876	-0.00161895751953125	0.427398681640625
176	0.4296875	242.582233387539	-0.00165252685546875	0.429931640625
177	0.43212890625	242.606633387477	-0.00160919189453125	0.432342529296875
178	0.4345703125	242.631033387416	-0.00165802001953125	0.434783935546875
179	0.43701171875	242.655433387354	-0.001611328125	0.437225341796875
180	0.439453125	242.679833387292	-0.001641845703125	0.439605712890625
181	0.44189453125	242.704233387231	-0.00161865234375	0.442108154296875
182	0.4443359375	242.728633387169	-0.001630859375	0.44451904296875
183	0.44677734375	242.753033387108	-0.00163909912109375	0.44696044921875
184	0.44921875	242.777433387046	-0.0016156005859375	0.44940185546875
185	0.45166015625	242.801833386984	-0.0016455078125	0.451904296875
186	0.4541015625	242.826233386923	-0.0016046142578125	0.454193115234375
187	0.45654296875	242.850633386861	-0.0016522216796875	0.456756591796875
188	0.458984375	242.875033386799	-0.00160430908203125	0.459136962890625
189	0.46142578125	242.899433386738	-0.00163818359375	0.46160888671875
190	0.4638671875	242.923833386676	-0.0016094970703125	0.46405029296875
191	0.46630859375	242.948233386615	-0.0016265869140625	0.466461181640625
192	0.46875	242.972633386553	-0.00162994384765625	0.468902587890625
193	0.47119140625	242.997033386491	-0.00161102294921875	0.47137451171875
194	0.4736328125	243.02143338643	-0.001636962890625	0.47381591796875
195	0.47607421875	243.045833386368	-0.00159881591796875	0.476226806640625
196	0.478515625	243.070233386307	-0.00164520263671875	0.47869873046875
197	0.48095703125	243.094633386245	-0.00159576416015625	0.481170654296875
198	0.4833984375	243.119033386183	-0.00163238525390625	0.48358154296875
199	0.48583984375	243.143433386122	-0.0015985107421875	0.48602294921875
200	0.48828125	243.16783338606	-0.00162109375	0.488433837890625
201	0.49072265625	243.192233385999	-0.00161865234375	0.490875244140625
202	0.4931640625	243.216633385937	-0.00160430908203125	0.4932861328125
203	0.49560546875	243.241033385875	-0.00162689208984375	0.49578857421875
204	0.498046875	243.265433385814	-0.00159271240234375	0.49822998046875
205	0.50048828125	243.289833385752	-0.001636962890625	0.500701904296875
206	0.5029296875	243.314233385691	-0.00158782958984375	0.503082275390625
207	0.50537109375	243.338633385629	-0.00162628173828125	0.505523681640625
208	0.5078125	243.363033385567	-0.00158843994140625	0.5079345703125
209	0.51025390625	243.387433385506	-0.001614990234375	0.510406494140625
210	0.5126953125	243.411833385444	-0.00160675048828125	0.512847900390625
211	0.51513671875	243.436233385383	-0.00159759521484375	0.51531982421875
212	0.517578125	243.460633385321	-0.0016156005859375	0.517730712890625
213	0.52001953125	243.485033385259	-0.00158538818359375	0.520172119140625
214	0.5224609375	243.509433385198	-0.001627197265625	0.52264404296875
215	0.52490234375	243.533833385136	-0.001578369140625	0.52508544921875
216	0.52734375	243.558233385075	-0.00161834716796875	0.52752685546875
217	0.52978515625	243.582633385013	-0.0015771484375	0.529937744140625
218	0.5322265625	243.607033384951	-0.00160858154296875	0.53240966796875
219	0.53466796875	243.63143338489	-0.00159423828125	0.534820556640625
220	0.537109375	243.655833384828	-0.001590576171875	0.537261962890625
221	0.53955078125	243.680233384767	-0.001602783203125	0.539794921875
222	0.5419921875	243.704633384705	-0.00157684326171875	0.5421142578125
223	0.54443359375	243.729033384643	-0.001614990234375	0.54461669921875
224	0.546875	243.753433384582	-0.0015679931640625	0.546966552734375
225	0.54931640625	243.77783338452	-0.0016082763671875	0.549530029296875
226	0.5517578125	243.802233384459	-0.00156402587890625	0.551910400390625
227	0.55419921875	243.826633384397	-0.00159912109375	0.5543212890625
228	0.556640625	243.851033384335	-0.001578369140625	0.556793212890625
229	0.55908203125	243.875433384274	-0.00157958984375	0.559234619140625
230	0.5615234375	243.899833384212	-0.00158660888671875	0.561676025390625
231	0.56396484375	243.924233384151	-0.00156494140625	0.5640869140625
232	0.56640625	243.948633384089	-0.00159942626953125	0.56658935546875
233	0.56884765625	243.973033384027	-0.00155364990234375	0.5689697265625
234	0.5712890625	243.997433383966	-0.00159423828125	0.57147216796875
235	0.57373046875	244.021833383904	-0.00154754638671875	0.573944091796875
236	0.576171875	244.046233383842	-0.00158599853515625	0.576324462890625
237	0.57861328125	244.070633383781	-0.0015594482421875	0.578765869140625
238	0.5810546875	244.095033383719	-0.001566162109375	0.581207275390625
239	0.58349609375	244.119433383658	-0.00156768798828125	0.58367919921875
240	0.5859375	244.143833383596	-0.0015509033203125	0.586029052734375
241	0.58837890625	244.168233383534	-0.001580810546875	0.588531494140625
242	0.5908203125	244.192633383473	-0.00153717041015625	0.590972900390625
243	0.59326171875	244.217033383411	-0.0015765380859375	0.59344482421875
244	0.595703125	244.24143338335	-0.00152862548828125	0.595794677734375
245	0.59814453125	244.265833383288	-0.00156951904296875	0.598297119140625
246	0.6005859375	244.290233383226	-0.00153778076171875	0.60076904296875
247	0.60302734375	244.314633383165	-0.00154937744140625	0.603179931640625
248	0.60546875	244.339033383103	-0.00154541015625	0.60565185546875
249	0.60791015625	244.363433383042	-0.00153350830078125	0.608001708984375
250	0.6103515625	244.38783338298	-0.00155853271484375	0.61053466796875
251	0.61279296875	244.412233382918	-0.00151824951171875	0.6129150390625
252	0.615234375	244.436633382857	-0.00155548095703125	0.615447998046875
253	0.61767578125	244.461033382795	-0.00150726318359375	0.6177978515625
254	0.6201171875	244.485433382734	-0.001549072265625	0.620330810546875
255	0.62255859375	244.509833382672	-0.00151153564453125	0.6226806640625
256	0.625	244.53423338261	-0.00152679443359375	0.625091552734375
257	0.62744140625	244.558633382549	-0.0015167236328125	0.627593994140625
258	0.6298828125	244.583033382487	-0.00150970458984375	0.62994384765625
259	0.63232421875	244.607433382426	-0.001529541015625	0.63250732421875
260	0.634765625	244.631833382364	-0.00149200439453125	0.634857177734375
261	0.63720703125	244.656233382302	-0.0015264892578125	0.6373291015625
262	0.6396484375	244.680633382241	-0.00147918701171875	0.639739990234375
263	0.64208984375	244.705033382179	-0.001522216796875	0.642242431640625
264	0.64453125	244.729433382118	-0.0014801025390625	0.6446533203125
265	0.64697265625	244.753833382056	-0.0014990234375	0.64703369140625
266	0.6494140625	244.778233381994	-0.0014837646484375	0.6495361328125
267	0.65185546875	244.802633381933	-0.0014813232421875	0.65191650390625
268	0.654296875	244.827033381871	-0.00149566650390625	0.6544189453125
269	0.65673828125	244.85143338181	-0.001461181640625	0.656768798828125
270	0.6591796875	244.875833381748	-0.00149200439453125	0.659332275390625
271	0.66162109375	244.900233381686	-0.00144561767578125	0.66168212890625
272	0.6640625	244.924633381625	-0.00148834228515625	0.6641845703125
273	0.66650390625	244.949033381563	-0.0014422607421875	0.666595458984375
274	0.6689453125	244.973433381502	-0.00146392822265625	0.66900634765625
275	0.67138671875	244.99783338144	-0.00144287109375	0.6715087890625
276	0.673828125	245.022233381378	-0.00144439697265625	0.67388916015625
277	0.67626953125	245.046633381317	-0.00145294189453125	0.676361083984375
278	0.6787109375	245.071033381255	-0.00142242431640625	0.678741455078125
279	0.68115234375	245.095433381194	-0.0014495849609375	0.6812744140625
280	0.68359375	245.119833381132	-0.00140411376953125	0.68365478515625
281	0.68603515625	245.14423338107	-0.0014459228515625	0.6861572265625
282	0.6884765625	245.168633381009	-0.0013970947265625	0.68853759765625
283	0.69091796875	245.193033380947	-0.0014215087890625	0.690948486328125
284	0.693359375	245.217433380885	-0.001395263671875	0.69342041015625
285	0.69580078125	245.241833380824	-0.0014013671875	0.695831298828125
286	0.6982421875	245.266233380762	-0.00140472412109375	0.698272705078125
287	0.70068359375	245.290633380701	-0.001376953125	0.70068359375
288	0.703125	245.315033380639	-0.001400146484375	0.703155517578125
289	0.70556640625	245.339433380577	-0.001356201171875	0.705596923828125
290	0.7080078125	245.363833380516	-0.00139556884765625	0.708099365234375
291	0.71044921875	245.388233380454	-0.00134521484375	0.71044921875
292	0.712890625	245.412633380393	-0.00137115478515625	0.712890625
293	0.71533203125	245.437033380331	-0.0013385009765625	0.71527099609375
294	0.7177734375	245.461433380269	-0.00134796142578125	0.7177734375
295	0.72021484375	245.485833380208	-0.00134521484375	0.720184326171875
296	0.72265625	245.510233380146	-0.00132080078125	0.72271728515625
297	0.72509765625	245.534633380085	-0.00133941650390625	0.725067138671875
298	0.7275390625	245.559033380023	-0.001297607421875	0.72760009765625
299	0.72998046875	245.583433379961	-0.0013336181640625	0.73004150390625
300	0.732421875	245.6078333799	-0.00128173828125	0.732391357421875
301	0.73486328125	245.632233379838	-0.00130706787109375	0.73480224609375
302	0.7373046875	245.656633379777	-0.00126953125	0.737274169921875
303	0.73974609375	245.681033379715	-0.00128082275390625	0.73974609375
304	0.7421875	245.705433379653	-0.00127227783203125	0.742156982421875
305	0.74462890625	245.729833379592	-0.00125091552734375	0.744659423828125
306	0.7470703125	245.75423337953	-0.001263427734375	0.747100830078125
307	0.74951171875	245.778633379469	-0.00122344970703125	0.74951171875
308	0.751953125	245.803033379407	-0.00125518798828125	0.75164794921875
309	0.75439453125	245.827433379345	-0.00120208740234375	0.7537841796875
310	0.7568359375	245.851833379284	-0.0012274169921875	0.7562255859375
311	0.75927734375	245.876233379222	-0.0011846923828125	0.7586669921875
312	0.76171875	245.900633379161	-0.00119842529296875	0.76141357421875
313	0.76416015625	245.925033379099	-0.001181640625	0.76324462890625
314	0.7666015625	245.949433379037	-0.00116302490234375	0.765380859375
315	0.76904296875	245.973833378976	-0.001168212890625	0.76812744140625
316	0.771484375	245.998233378914	-0.00113037109375	0.77056884765625
317	0.77392578125	246.022633378853	-0.0011566162109375	0.7733154296875
318	0.7763671875	246.047033378791	-0.001103515625	0.77545166015625
319	0.77880859375	246.071433378729	-0.00112640380859375	0.7781982421875
320	0.78125	246.095833378668	-0.00107940673828125	0.7806396484375
321	0.78369140625	246.120233378606	-0.0010931396484375	0.78277587890625
322	0.7861328125	246.144633378545	-0.00106964111328125	0.78521728515625
323	0.78857421875	246.169033378483	-0.00105224609375	0.787353515625
324	0.791015625	246.193433378421	-0.00105010986328125	0.79010009765625
325	0.79345703125	246.21783337836	-0.0010137939453125	0.79254150390625
326	0.7958984375	246.242233378298	-0.00103240966796875	0.7952880859375
327	0.79833984375	246.266633378237	-0.00097869873046875	0.79742431640625
328	0.80078125	246.291033378175	-0.00099700927734375	0.79986572265625
329	0.80322265625	246.315433378113	-0.00094635009765625	0.80291748046875
330	0.8056640625	246.339833378052	-0.00095794677734375	0.80474853515625
331	0.80810546875	246.36423337799	-0.00092742919921875	0.806884765625
332	0.810546875	246.388633377928	-0.00091033935546875	0.809326171875
333	0.81298828125	246.413033377867	-0.00090118408203125	0.8123779296875
334	0.8154296875	246.437433377805	-0.000865478515625	0.814208984375
335	0.81787109375	246.461833377744	-0.00087615966796875	0.81695556640625
336	0.8203125	246.486233377682	-0.00082305908203125	0.81939697265625
337	0.82275390625	246.51063337762	-0.0008355712890625	0.82183837890625
338	0.8251953125	246.535033377559	-0.000782470703125	0.8245849609375
339	0.82763671875	246.559433377497	-0.000791015625	0.82672119140625
340	0.830078125	246.583833377436	-0.00075469970703125	0.82916259765625
341	0.83251953125	246.608233377374	-0.0007379150390625	0.8319091796875
342	0.8349609375	246.632633377312	-0.00072052001953125	0.8343505859375
343	0.83740234375	246.657033377251	-0.0006854248046875	0.83648681640625
344	0.83984375	246.681433377189	-0.000687255859375	0.83892822265625
345	0.84228515625	246.705833377128	-0.00063385009765625	0.84197998046875
346	0.8447265625	246.730233377066	-0.0006390380859375	0.84381103515625
347	0.84716796875	246.754633377004	-0.00058380126953125	0.8465576171875
348	0.849609375	246.779033376943	-0.000587158203125	0.84869384765625
349	0.85205078125	246.803433376881	-0.00054412841796875	0.8514404296875
350	0.8544921875	246.82783337682	-0.00052520751953125	0.8538818359375
351	0.85693359375	246.852233376758	-0.00049957275390625	0.85662841796875
352	0.859375	246.876633376696	-0.00046356201171875	0.85845947265625
353	0.86181640625	246.901033376635	-0.000456146240234375	0.86090087890625
354	0.8642578125	246.925433376573	-0.00040228271484375	0.8636474609375
355	0.86669921875	246.949833376512	-0.0003983154296875	0.8648681640625
356	0.869140625	246.97423337645	-0.00034075927734375	0.867919921875
357	0.87158203125	246.998633376388	-0.000335968017578125	0.87066650390625
358	0.8740234375	247.023033376327	-0.00028717041015625	0.87371826171875
359	0.87646484375	247.047433376265	-0.000263671875	0.8758544921875
360	0.87890625	247.071833376204	-0.00022998046875	0.877685546875
361	0.88134765625	247.096233376142	-0.000192352294921875	0.8807373046875
362	0.8837890625	247.12063337608	-0.00017431640625	0.88287353515625
363	0.88623046875	247.145033376019	-0.00012060546875	0.88531494140625
364	0.888671875	247.169433375957	-0.000107757568359375	0.887451171875
365	0.89111328125	247.193833375896	-4.876708984375E-05	0.89019775390625
366	0.8935546875	247.218233375834	-3.638916015625E-05	0.89263916015625
367	0.89599609375	247.242633375772	1.64093017578125E-05	0.8953857421875
368	0.8984375	247.267033375711	4.3792724609375E-05	0.89752197265625
369	0.90087890625	247.291433375649	8.4259033203125E-05	0.8990478515625
370	0.9033203125	247.315833375588	0.0001229248046875	0.90179443359375
371	0.90576171875	247.340233375526	0.000150634765625	0.9051513671875
372	0.908203125	247.364633375464	0.0002047119140625	0.90789794921875
373	0.91064453125	247.389033375403	0.0002274169921875	0.90911865234375
374	0.9130859375	247.413433375341	0.000287628173828125	0.911865234375
375	0.91552734375	247.43783337528	0.000307403564453125	0.91461181640625
376	0.91796875	247.462233375218	0.00036578369140625	0.916748046875
377	0.92041015625	247.486633375156	0.000398345947265625	0.9197998046875
378	0.9228515625	247.511033375095	0.00044683837890625	0.921630859375
379	0.92529296875	247.535433375033	0.0004901123046875	0.92437744140625
380	0.927734375	247.559833374972	0.00052703857421875	0.92620849609375
381	0.93017578125	247.58423337491	0.0005828857421875	0.92926025390625
382	0.9326171875	247.608633374848	0.00061614990234375	0.931396484375
383	0.93505859375	247.633033374787	0.00067840576171875	0.93414306640625
384	0.9375	247.657433374725	0.00070892333984375	0.93658447265625
385	0.93994140625	247.681833374663	0.00077117919921875	0.93902587890625
386	0.9423828125	247.706233374602	0.00081024169921875	0.94146728515625
387	0.94482421875	247.73063337454	0.00086578369140625	0.94390869140625
388	0.947265625	247.755033374479	0.0009136962890625	0.9466552734375
389	0.94970703125	247.779433374417	0.00096038818359375	0.948486328125
390	0.9521484375	247.803833374355	0.001019287109375	0.9515380859375
391	0.95458984375	247.828233374294	0.0010626220703125	0.953369140625
392	0.95703125	247.852633374232	0.001126708984375	0.9564208984375
393	0.95947265625	247.877033374171	0.00116729736328125	0.95855712890625
394	0.9619140625	247.901433374109	0.00123291015625	0.96160888671875
395	0.96435546875	247.925833374047	0.00128021240234375	0.96343994140625
396	0.966796875	247.950233373986	0.00134185791015625	0.9661865234375
397	0.96923828125	247.974633373924	0.001395263671875	0.96832275390625
398	0.9716796875	247.999033373863	0.00145050048828125	0.97137451171875
399	0.97412109375	248.023433373801	0.00151214599609375	0.972900390625
400	0.9765625	248.047833373739	0.00156524658203125	0.97564697265625
401	0.97900390625	248.072233373678	0.0016326904296875	0.9783935546875
402	0.9814453125	248.096633373616	0.00168304443359375	0.98052978515625
403	0.98388671875	248.121033373555	0.001751708984375	0.98297119140625
404	0.986328125	248.145433373493	0.0018072509765625	0.98541259765625
405	0.98876953125	248.169833373431	0.001875	0.987548828125
406	0.9912109375	248.19423337337	0.001934814453125	0.9906005859375
407	0.99365234375	248.218633373308	0.0019976806640625	0.9930419921875
408	0.99609375	248.243033373247	0.002064208984375	0.99517822265625
409	0.99853515625	248.267433373185	0.00212646484375	0.9979248046875
410	1.0009765625	248.291833373123	0.002197265625	1.00006103515625
411	1.00341796875	248.316233373062	0.00225799560546875	1.002197265625
412	1.005859375	248.340633373	0.002330322265625	1.00494384765625
413	1.00830078125	248.365033372939	0.0023944091796875	1.007080078125
414	1.0107421875	248.389433372877	0.0024676513671875	1.0101318359375
415	1.01318359375	248.413833372815	0.0025347900390625	1.0125732421875
416	1.015625	248.438233372754	0.00260589599609375	1.0150146484375
417	1.01806640625	248.462633372692	0.00267730712890625	1.0174560546875
418	1.0205078125	248.487033372631	0.00274871826171875	1.019287109375
419	1.02294921875	248.511433372569	0.00282379150390625	1.0223388671875
420	1.025390625	248.535833372507	0.002894287109375	1.02447509765625
421	1.02783203125	248.560233372446	0.00297027587890625	1.0272216796875
422	1.0302734375	248.584633372384	0.00304351806640625	1.02935791015625
423	1.03271484375	248.609033372323	0.00312164306640625	1.03179931640625
424	1.03515625	248.633433372261	0.00319580078125	1.03424072265625
425	1.03759765625	248.657833372199	0.003272705078125	1.03668212890625
426	1.0400390625	248.682233372138	0.0033489990234375	1.03912353515625
427	1.04248046875	248.706633372076	0.00342681884765625	1.041259765625
428	1.044921875	248.731033372015	0.003504638671875	1.043701171875
429	1.04736328125	248.755433371953	0.00358154296875	1.046142578125
430	1.0498046875	248.779833371891	0.003658447265625	1.048583984375
431	1.05224609375	248.80423337183	0.00373565673828125	1.05072021484375
432	1.0546875	248.828633371768	0.00381256103515625	1.05377197265625
433	1.05712890625	248.853033371706	0.0038873291015625	1.05621337890625
434	1.0595703125	248.877433371645	0.0039605712890625	1.0589599609375
435	1.06201171875	248.901833371583	0.0040313720703125	1.060791015625
436	1.064453125	248.926233371522	0.0041015625	1.06414794921875
437	1.06689453125	248.95063337146	0.00416839599609375	1.06597900390625
438	1.0693359375	248.975033371398	0.0042333984375	1.068115234375
439	1.07177734375	248.999433371337	0.004293212890625	1.07086181640625
440	1.07421875	249.023833371275	0.00435302734375	1.072998046875
441	1.07666015625	249.048233371214	0.0044085693359375	1.07574462890625
442	1.0791015625	249.072633371152	0.0044622802734375	1.07879638671875
443	1.08154296875	249.09703337109	0.0045123291015625	1.080322265625
444	1.083984375	249.121433371029	0.0045599365234375	1.0833740234375
445	1.08642578125	249.145833370967	0.0046063232421875	1.08551025390625
446	1.0888671875	249.170233370906	0.004649658203125	1.0882568359375
447	1.09130859375	249.194633370844	0.00469207763671875	1.090087890625
448	1.09375	249.219033370782	0.004730224609375	1.09283447265625
449	1.09619140625	249.243433370721	0.00476959228515625	1.09527587890625
450	1.0986328125	249.267833370659	0.0048052978515625	1.09771728515625
451	1.10107421875	249.292233370598	0.00484130859375	1.09954833984375
452	1.103515625	249.316633370536	0.00487396240234375	1.10198974609375
453	1.10595703125	249.341033370474	0.00490631103515625	1.104736328125
454	1.1083984375	249.365433370413	0.004937744140625	1.10748291015625
455	1.11083984375	249.389833370351	0.0049676513671875	1.10992431640625
456	1.11328125	249.41423337029	0.00499725341796875	1.1126708984375
457	1.11572265625	249.438633370228	0.0050244140625	1.11480712890625
458	1.1181640625	249.463033370166	0.00505279541015625	1.11724853515625
459	1.12060546875	249.487433370105	0.00507843017578125	1.119384765625
460	1.123046875	249.511833370043	0.00510467529296875	1.12213134765625
461	1.12548828125	249.536233369982	0.00512908935546875	1.1248779296875
462	1.1279296875	249.56063336992	0.00515350341796875	1.126708984375
463	1.13037109375	249.585033369858	0.00517730712890625	1.12945556640625
464	1.1328125	249.609433369797	0.00520050048828125	1.13189697265625
465	1.13525390625	249.633833369735	0.005223388671875	1.1346435546875
466	1.1376953125	249.658233369674	0.00524444580078125	1.136474609375
467	1.14013671875	249.682633369612	0.0052667236328125	1.1395263671875
468	1.142578125	249.70703336955	0.00528717041015625	1.14105224609375
469	1.14501953125	249.731433369489	0.00530853271484375	1.14349365234375
470	1.1474609375	249.755833369427	0.0053277587890625	1.146240234375
471	1.14990234375	249.780233369366	0.00534759521484375	1.14898681640625
472	1.15234375	249.804633369304	0.00536712646484375	1.151123046875
473	1.15478515625	249.829033369242	0.00538604736328125	1.15386962890625
474	1.1572265625	249.853433369181	0.00540496826171875	1.1566162109375
475	1.15966796875	249.877833369119	0.00542236328125	1.158447265625
476	1.162109375	249.902233369058	0.00544097900390625	1.16058349609375
477	1.16455078125	249.926633368996	0.00545806884765625	1.16363525390625
478	1.1669921875	249.951033368934	0.00547576904296875	1.16607666015625
479	1.16943359375	249.975433368873	0.00549224853515625	1.168212890625
480	1.171875	249.999833368811	0.00550933837890625	1.170654296875
481	1.17431640625	250.024233368749	0.00552581787109375	1.17340087890625
482	1.1767578125	250.048633368688	0.0055419921875	1.17584228515625
483	1.17919921875	250.073033368626	0.00555816650390625	1.17767333984375
484	1.181640625	250.097433368565	0.0055731201171875	1.18072509765625
485	1.18408203125	250.121833368503	0.00558929443359375	1.1822509765625
486	1.1865234375	250.146233368441	0.00560394287109375	1.185302734375
487	1.18896484375	250.17063336838	0.0056195068359375	1.187744140625
488	1.19140625	250.195033368318	0.00563385009765625	1.190185546875
489	1.19384765625	250.219433368257	0.0056488037109375	1.19293212890625
490	1.1962890625	250.243833368195	0.00566314697265625	1.195068359375
491	1.19873046875	250.268233368133	0.005677490234375	1.19720458984375
492	1.201171875	250.292633368072	0.0056915283203125	1.20025634765625
493	1.19873046875	250.31703336801	0.00567413330078125	1.19781494140625
494	1.1962890625	250.341433367949	0.00565765380859375	1.19476318359375
495	1.19384765625	250.365833367887	0.00563995361328125	1.19232177734375
496	1.19140625	250.390233367825	0.00562286376953125	1.190185546875
497	1.18896484375	250.414633367764	0.00560455322265625	1.18804931640625
498	1.1865234375	250.439033367702	0.00558685302734375	1.18560791015625
499	1.18408203125	250.463433367641	0.0055682373046875	1.18316650390625
500	1.181640625	250.487833367579	0.00554962158203125	1.18072509765625
501	1.17919921875	250.512233367517	0.00553070068359375	1.177978515625
502	1.1767578125	250.536633367456	0.0055108642578125	1.17584228515625
503	1.17431640625	250.561033367394	0.00549163818359375	1.1737060546875
504	1.171875	250.585433367333	0.00547119140625	1.170654296875
505	1.16943359375	250.609833367271	0.0054510498046875	1.1688232421875
506	1.1669921875	250.634233367209	0.00542938232421875	1.1663818359375
507	1.16455078125	250.658633367148	0.0054083251953125	1.163330078125
508	1.162109375	250.683033367086	0.00538665771484375	1.160888671875
509	1.15966796875	250.707433367025	0.0053643798828125	1.15875244140625
510	1.1572265625	250.731833366963	0.00534149169921875	1.1566162109375
511	1.15478515625	250.756233366901	0.00531768798828125	1.153564453125
512	1.15234375	250.78063336684	0.005294189453125	1.151123046875
513	1.14990234375	250.805033366778	0.0052691650390625	1.148681640625
514	1.1474609375	250.829433366717	0.005244140625	1.146240234375
515	1.14501953125	250.853833366655	0.00521759033203125	1.14410400390625
516	1.142578125	250.878233366593	0.0051910400390625	1.14166259765625
517	1.14013671875	250.902633366532	0.00516357421875	1.13922119140625
518	1.1376953125	250.92703336647	0.00513519287109375	1.1370849609375
519	1.13525390625	250.951433366409	0.0051055908203125	1.13433837890625
520	1.1328125	250.975833366347	0.0050750732421875	1.131591796875
521	1.13037109375	251.000233366285	0.00504364013671875	1.12945556640625
522	1.1279296875	251.024633366224	0.005010986328125	1.1260986328125
523	1.12548828125	251.049033366162	0.00497711181640625	1.1248779296875
524	1.123046875	251.073433366101	0.00494140625	1.121826171875
525	1.12060546875	251.097833366039	0.00490478515625	1.119384765625
526	1.1181640625	251.122233365977	0.00486663818359375	1.11724853515625
527	1.11572265625	251.146633365916	0.00482635498046875	1.11419677734375
528	1.11328125	251.171033365854	0.004783935546875	1.11175537109375
529	1.11083984375	251.195433365792	0.00473907470703125	1.10931396484375
530	1.1083984375	251.219833365731	0.00469268798828125	1.10748291015625
531	1.10595703125	251.244233365669	0.0046435546875	1.10504150390625
532	1.103515625	251.268633365608	0.00459075927734375	1.102294921875
533	1.10107421875	251.293033365546	0.00453582763671875	1.099853515625
534	1.0986328125	251.317433365484	0.00447662353515625	1.09771728515625
535	1.09619140625	251.341833365423	0.00441558837890625	1.0955810546875
536	1.09375	251.366233365361	0.00434844970703125	1.0931396484375
537	1.09130859375	251.3906333653	0.004278564453125	1.09039306640625
538	1.0888671875	251.415033365238	0.00420440673828125	1.087646484375
539	1.08642578125	251.439433365176	0.00412628173828125	1.08551025390625
540	1.083984375	251.463833365115	0.004046630859375	1.082763671875
541	1.08154296875	251.488233365053	0.0039593505859375	1.080322265625
542	1.0791015625	251.512633364992	0.0038751220703125	1.0784912109375
543	1.07666015625	251.53703336493	0.003782958984375	1.07574462890625
544	1.07421875	251.561433364868	0.00369659423828125	1.07330322265625
545	1.07177734375	251.585833364807	0.00360198974609375	1.07086181640625
546	1.0693359375	251.610233364745	0.003511962890625	1.068115234375
547	1.06689453125	251.634633364684	0.00341949462890625	1.06597900390625
548	1.064453125	251.659033364622	0.0033282470703125	1.06353759765625
549	1.06201171875	251.68343336456	0.003240966796875	1.06109619140625
550	1.0595703125	251.707833364499	0.00314605712890625	1.05926513671875
551	1.05712890625	251.732233364437	0.003062744140625	1.05621337890625
552	1.0546875	251.756633364376	0.00296875	1.0540771484375
553	1.05224609375	251.781033364314	0.002889404296875	1.051025390625
554	1.0498046875	251.805433364252	0.002796630859375	1.048583984375
555	1.04736328125	251.829833364191	0.00271575927734375	1.046142578125
556	1.044921875	251.854233364129	0.002630615234375	1.0443115234375
557	1.04248046875	251.878633364068	0.00254913330078125	1.04156494140625
558	1.0400390625	251.903033364006	0.002470703125	1.0394287109375
559	1.03759765625	251.927433363944	0.002384033203125	1.03607177734375
560	1.03515625	251.951833363883	0.00231292724609375	1.03424072265625
561	1.03271484375	251.976233363821	0.00222747802734375	1.0321044921875
562	1.0302734375	252.00063336376	0.00216156005859375	1.02935791015625
563	1.02783203125	252.025033363698	0.002076416015625	1.026611328125
564	1.025390625	252.049433363636	0.00200927734375	1.02447509765625
565	1.02294921875	252.073833363575	0.00193328857421875	1.0223388671875
566	1.0205078125	252.098233363513	0.00186309814453125	1.01898193359375
567	1.01806640625	252.122633363452	0.00179473876953125	1.016845703125
568	1.015625	252.14703336339	0.0017181396484375	1.014404296875
569	1.01318359375	252.171433363328	0.00165985107421875	1.0125732421875
570	1.0107421875	252.195833363267	0.00158172607421875	1.009521484375
571	1.00830078125	252.220233363205	0.00152984619140625	1.0064697265625
572	1.005859375	252.244633363144	0.00145050048828125	1.004638671875
573	1.00341796875	252.269033363082	0.0013983154296875	1.002197265625
574	1.0009765625	252.29343336302	0.001329345703125	0.999755859375
575	0.99853515625	252.317833362959	0.001270751953125	0.997314453125
576	0.99609375	252.342233362897	0.00121124267578125	0.99456787109375
577	0.99365234375	252.366633362836	0.00114410400390625	0.99273681640625
578	0.9912109375	252.391033362774	0.001097412109375	0.989990234375
579	0.98876953125	252.415433362712	0.001026611328125	0.9881591796875
580	0.986328125	252.439833362651	0.00098785400390625	0.98541259765625
581	0.98388671875	252.464233362589	0.00091400146484375	0.9832763671875
582	0.9814453125	252.488633362527	0.00087615966796875	0.9808349609375
583	0.97900390625	252.513033362466	0.00081268310546875	0.97808837890625
584	0.9765625	252.537433362404	0.00076690673828125	0.97503662109375
585	0.97412109375	252.561833362343	0.000714111328125	0.972900390625
586	0.9716796875	252.586233362281	0.00065704345703125	0.9710693359375
587	0.96923828125	252.610633362219	0.00062042236328125	0.968017578125
588	0.966796875	252.635033362158	0.00055694580078125	0.965576171875
589	0.96435546875	252.659433362096	0.0005303955078125	0.96343994140625
590	0.9619140625	252.683833362035	0.000461456298828125	0.96099853515625
591	0.95947265625	252.708233361973	0.000437347412109375	0.958251953125
592	0.95703125	252.732633361911	0.000379669189453125	0.955810546875
593	0.95458984375	252.75703336185	0.00034619140625	0.953369140625
594	0.9521484375	252.781433361788	0.000299652099609375	0.95123291015625
595	0.94970703125	252.805833361727	0.0002523193359375	0.94879150390625
596	0.947265625	252.830233361665	0.0002244873046875	0.946044921875
597	0.94482421875	252.854633361603	0.00016888427734375	0.94451904296875
598	0.9423828125	252.879033361542	0.000152587890625	0.94146728515625
599	0.93994140625	252.90343336148	8.8165283203125E-05	0.938720703125
600	0.9375	252.927833361419	7.635498046875E-05	0.9368896484375
601	0.93505859375	252.952233361357	2.2125244140625E-05	0.93414306640625
602	0.9326171875	252.976633361295	8.57543945312497E-07	0.931396484375
603	0.93017578125	253.001033361234	-4.1961669921875E-05	0.928955078125
604	0.927734375	253.025433361172	-7.928466796875E-05	0.92681884765625
605	0.92529296875	253.049833361111	-0.000101165771484375	0.924072265625
606	0.9228515625	253.074233361049	-0.000150054931640625	0.9222412109375
607	0.92041015625	253.098633360987	-0.00015875244140625	0.91949462890625
608	0.91796875	253.123033360926	-0.00021954345703125	0.91705322265625
609	0.91552734375	253.147433360864	-0.000219696044921875	0.9149169921875
610	0.9130859375	253.171833360803	-0.00027337646484375	0.91217041015625
611	0.91064453125	253.196233360741	-0.000281829833984375	0.90972900390625
612	0.908203125	253.220633360679	-0.0003253173828125	0.906982421875
613	0.90576171875	253.245033360618	-0.000352783203125	0.90484619140625
614	0.9033203125	253.269433360556	-0.000371063232421875	0.90240478515625
615	0.90087890625	253.293833360495	-0.0004140625	0.9002685546875
616	0.8984375	253.318233360433	-0.000417022705078125	0.897216796875
617	0.89599609375	253.342633360371	-0.0004744873046875	0.8953857421875
618	0.8935546875	253.36703336031	-0.00046624755859375	0.8929443359375
619	0.89111328125	253.391433360248	-0.00051788330078125	0.89019775390625
620	0.888671875	253.415833360187	-0.00051605224609375	0.88775634765625
621	0.88623046875	253.440233360125	-0.00055908203125	0.88531494140625
622	0.8837890625	253.464633360063	-0.0005767822265625	0.88287353515625
623	0.88134765625	253.489033360002	-0.00059356689453125	0.880126953125
624	0.87890625	253.51343335994	-0.00062835693359375	0.877685546875
625	0.87646484375	253.537833359879	-0.00062774658203125	0.87554931640625
626	0.8740234375	253.562233359817	-0.0006805419921875	0.872802734375
627	0.87158203125	253.586633359755	-0.0006646728515625	0.87066650390625
628	0.869140625	253.611033359694	-0.00071563720703125	0.8685302734375
629	0.86669921875	253.635433359632	-0.0007037353515625	0.86578369140625
630	0.8642578125	253.65983335957	-0.00074737548828125	0.86334228515625
631	0.86181640625	253.684233359509	-0.000755615234375	0.86151123046875
632	0.859375	253.708633359447	-0.0007708740234375	0.8587646484375
633	0.85693359375	253.733033359386	-0.0007989501953125	0.8563232421875
634	0.8544921875	253.757433359324	-0.00079620361328125	0.853271484375
635	0.85205078125	253.781833359262	-0.0008447265625	0.850830078125
636	0.849609375	253.806233359201	-0.00082427978515625	0.849609375
637	0.84716796875	253.830633359139	-0.00087432861328125	0.8465576171875
638	0.8447265625	253.855033359078	-0.0008544921875	0.843505859375
639	0.84228515625	253.879433359016	-0.0009002685546875	0.8416748046875
640	0.83984375	253.903833358954	-0.00089996337890625	0.83892822265625
641	0.83740234375	253.928233358893	-0.00091766357421875	0.8367919921875
642	0.8349609375	253.952633358831	-0.00093963623046875	0.833740234375
643	0.83251953125	253.97703335877	-0.00093780517578125	0.83160400390625
644	0.830078125	254.001433358708	-0.000982666015625	0.82977294921875
645	0.82763671875	254.025833358646	-0.00095916748046875	0.8270263671875
646	0.8251953125	254.050233358585	-0.00100860595703125	0.82489013671875
647	0.82275390625	254.074633358523	-0.00098358154296875	0.8221435546875
648	0.8203125	254.099033358462	-0.0010321044921875	0.8197021484375
649	0.81787109375	254.1234333584	-0.00102325439453125	0.816650390625
650	0.8154296875	254.147833358338	-0.00104400634765625	0.8148193359375
651	0.81298828125	254.172233358277	-0.00105926513671875	0.811767578125
652	0.810546875	254.196633358215	-0.00105926513671875	0.81024169921875
653	0.80810546875	254.221033358154	-0.0010992431640625	0.806884765625
654	0.8056640625	254.245433358092	-0.0010748291015625	0.804443359375
655	0.80322265625	254.26983335803	-0.0011224365234375	0.80230712890625
656	0.80078125	254.294233357969	-0.0010919189453125	0.799560546875
657	0.79833984375	254.318633357907	-0.001141357421875	0.7977294921875
658	0.7958984375	254.343033357846	-0.00112396240234375	0.79498291015625
659	0.79345703125	254.367433357784	-0.0011468505859375	0.792236328125
660	0.791015625	254.391833357722	-0.0011541748046875	0.789794921875
661	0.78857421875	254.416233357661	-0.00115631103515625	0.78765869140625
662	0.7861328125	254.440633357599	-0.001190185546875	0.78521728515625
663	0.78369140625	254.465033357538	-0.00116455078125	0.782470703125
664	0.78125	254.489433357476	-0.00121002197265625	0.78033447265625
665	0.77880859375	254.513833357414	-0.0011761474609375	0.77850341796875
666	0.7763671875	254.538233357353	-0.001226806640625	0.7757568359375
667	0.77392578125	254.562633357291	-0.0012017822265625	0.77301025390625
668	0.771484375	254.58703335723	-0.00122772216796875	0.7708740234375
669	0.76904296875	254.611433357168	-0.00122802734375	0.76812744140625
670	0.7666015625	254.635833357106	-0.00123321533203125	0.7659912109375
671	0.76416015625	254.660233357045	-0.0012615966796875	0.76385498046875
672	0.76171875	254.684633356983	-0.00123779296875	0.7611083984375
673	0.75927734375	254.709033356922	-0.0012811279296875	0.7586669921875
674	0.7568359375	254.73343335686	-0.00124664306640625	0.75592041015625
675	0.75439453125	254.757833356798	-0.00129852294921875	0.75408935546875
676	0.751953125	254.782233356737	-0.00126861572265625	0.75103759765625
677	0.74951171875	254.806633356675	-0.00129852294921875	0.74951171875
678	0.7470703125	254.831033356613	-0.0012945556640625	0.747039794921875
679	0.74462890625	254.855433356552	-0.0013037109375	0.744598388671875
680	0.7421875	254.87983335649	-0.0013287353515625	0.742218017578125
681	0.73974609375	254.904233356429	-0.001307373046875	0.73974609375
682	0.7373046875	254.928633356367	-0.0013482666015625	0.737335205078125
683	0.73486328125	254.953033356305	-0.0013140869140625	0.734832763671875
684	0.732421875	254.977433356244	-0.0013671875	0.7325439453125
685	0.72998046875	255.001833356182	-0.0013330078125	0.72998046875
686	0.7275390625	255.026233356121	-0.001365966796875	0.7275390625
687	0.72509765625	255.050633356059	-0.00135528564453125	0.725128173828125
688	0.72265625	255.075033355997	-0.00136871337890625	0.72265625
689	0.72021484375	255.099433355936	-0.00138763427734375	0.720245361328125
690	0.7177734375	255.123833355874	-0.001368408203125	0.7177734375
691	0.71533203125	255.148233355813	-0.00140533447265625	0.71539306640625
692	0.712890625	255.172633355751	-0.00137115478515625	0.712921142578125
693	0.71044921875	255.197033355689	-0.00142333984375	0.710601806640625
694	0.7080078125	255.221433355628	-0.0013848876953125	0.7080078125
695	0.70556640625	255.245833355566	-0.00142120361328125	0.705596923828125
696	0.703125	255.270233355505	-0.0014031982421875	0.703155517578125
697	0.70068359375	255.294633355443	-0.00142181396484375	0.70068359375
698	0.6982421875	255.319033355381	-0.00143402099609375	0.69830322265625
699	0.69580078125	255.34343335532	-0.00141815185546875	0.69580078125
700	0.693359375	255.367833355258	-0.0014508056640625	0.6934814453125
701	0.69091796875	255.392233355197	-0.0014178466796875	0.69097900390625
702	0.6884765625	255.416633355135	-0.0014691162109375	0.688568115234375
703	0.68603515625	255.441033355073	-0.0014276123046875	0.686065673828125
704	0.68359375	255.465433355012	-0.00146636962890625	0.68359375
705	0.68115234375	255.48983335495	-0.00144195556640625	0.6812744140625
706	0.6787109375	255.514233354889	-0.00146575927734375	0.678802490234375
707	0.67626953125	255.538633354827	-0.00147186279296875	0.67633056640625
708	0.673828125	255.563033354765	-0.0014605712890625	0.673858642578125
709	0.67138671875	255.587433354704	-0.00148956298828125	0.6715087890625
710	0.6689453125	255.611833354642	-0.00145965576171875	0.669097900390625
711	0.66650390625	255.636233354581	-0.0015093994140625	0.6666259765625
712	0.6640625	255.660633354519	-0.00146575927734375	0.66412353515625
713	0.66162109375	255.685033354457	-0.00150726318359375	0.6617431640625
714	0.6591796875	255.709433354396	-0.00147705078125	0.6593017578125
715	0.65673828125	255.733833354334	-0.00150543212890625	0.656829833984375
716	0.654296875	255.758233354273	-0.0015045166015625	0.654388427734375
717	0.65185546875	255.782633354211	-0.00149810791015625	0.6519775390625
718	0.6494140625	255.807033354149	-0.0015216064453125	0.649505615234375
719	0.64697265625	255.831433354088	-0.00149505615234375	0.647064208984375
720	0.64453125	255.855833354026	-0.00154205322265625	0.64471435546875
721	0.64208984375	255.880233353965	-0.00149810791015625	0.64215087890625
722	0.6396484375	255.904633353903	-0.00154144287109375	0.6397705078125
723	0.63720703125	255.929033353841	-0.00150604248046875	0.637298583984375
724	0.634765625	255.95343335378	-0.001539306640625	0.634857177734375
725	0.63232421875	255.977833353718	-0.001531982421875	0.632476806640625
726	0.6298828125	256.002233353656	-0.0015301513671875	0.629974365234375
727	0.62744140625	256.026633353595	-0.0015484619140625	0.62762451171875
728	0.625	256.051033353533	-0.0015252685546875	0.62506103515625
729	0.62255859375	256.075433353472	-0.00156890869140625	0.622711181640625
730	0.6201171875	256.09983335341	-0.00152496337890625	0.620208740234375
731	0.61767578125	256.124233353348	-0.0015692138671875	0.61785888671875
732	0.615234375	256.148633353287	-0.00152984619140625	0.6153564453125
733	0.61279296875	256.173033353225	-0.00156768798828125	0.61285400390625
734	0.6103515625	256.197433353164	-0.0015533447265625	0.610504150390625
735	0.60791015625	256.221833353102	-0.0015570068359375	0.6080322265625
736	0.60546875	256.24623335304	-0.0015704345703125	0.6055908203125
737	0.60302734375	256.270633352979	-0.00155181884765625	0.603179931640625
738	0.6005859375	256.295033352917	-0.00159210205078125	0.6007080078125
739	0.59814453125	256.319433352856	-0.00155029296875	0.598297119140625
740	0.595703125	256.343833352794	-0.00159576416015625	0.59588623046875
741	0.59326171875	256.368233352732	-0.0015533447265625	0.5933837890625
742	0.5908203125	256.392633352671	-0.001595458984375	0.590911865234375
743	0.58837890625	256.417033352609	-0.00157470703125	0.588470458984375
744	0.5859375	256.441433352548	-0.0015838623046875	0.586090087890625
745	0.58349609375	256.465833352486	-0.0015911865234375	0.5836181640625
746	0.5810546875	256.490233352424	-0.00157745361328125	0.5811767578125
747	0.57861328125	256.514633352363	-0.00161376953125	0.5787353515625
748	0.576171875	256.539033352301	-0.00157379150390625	0.576263427734375
749	0.57373046875	256.56343335224	-0.00161865234375	0.573944091796875
750	0.5712890625	256.587833352178	-0.00157440185546875	0.571380615234375
751	0.56884765625	256.612233352116	-0.0016192626953125	0.56903076171875
752	0.56640625	256.636633352055	-0.001591796875	0.566558837890625
753	0.56396484375	256.661033351993	-0.0016064453125	0.5640869140625
754	0.5615234375	256.685433351932	-0.00160736083984375	0.56170654296875
755	0.55908203125	256.70983335187	-0.0015985107421875	0.55926513671875
756	0.556640625	256.734233351808	-0.001629638671875	0.556854248046875
757	0.55419921875	256.758633351747	-0.00159210205078125	0.554351806640625
758	0.5517578125	256.783033351685	-0.00163482666015625	0.552032470703125
759	0.54931640625	256.807433351624	-0.00158966064453125	0.549468994140625
760	0.546875	256.831833351562	-0.0016363525390625	0.54705810546875
761	0.54443359375	256.8562333515	-0.0016033935546875	0.544586181640625
762	0.5419921875	256.880633351439	-0.00162261962890625	0.5421142578125
763	0.53955078125	256.905033351377	-0.001617431640625	0.53973388671875
764	0.537109375	256.929433351316	-0.00161346435546875	0.537322998046875
765	0.53466796875	256.953833351254	-0.0016387939453125	0.534881591796875
766	0.5322265625	256.978233351192	-0.0016033935546875	0.532379150390625
767	0.52978515625	257.002633351131	-0.001644287109375	0.52996826171875
768	0.52734375	257.027033351069	-0.00159942626953125	0.527587890625
769	0.52490234375	257.051433351008	-0.0016485595703125	0.52508544921875
770	0.5224609375	257.075833350946	-0.001610107421875	0.52264404296875
771	0.52001953125	257.100233350884	-0.0016351318359375	0.520111083984375
772	0.517578125	257.124633350823	-0.00162445068359375	0.51776123046875
773	0.51513671875	257.149033350761	-0.00162689208984375	0.515289306640625
774	0.5126953125	257.173433350699	-0.00164764404296875	0.512908935546875
775	0.51025390625	257.197833350638	-0.00161651611328125	0.5103759765625
776	0.5078125	257.222233350576	-0.0016546630859375	0.508087158203125
777	0.50537109375	257.246633350515	-0.00161102294921875	0.5054931640625
778	0.5029296875	257.271033350453	-0.0016619873046875	0.503173828125
779	0.50048828125	257.295433350391	-0.0016192626953125	0.500640869140625
780	0.498046875	257.31983335033	-0.0016485595703125	0.49822998046875
781	0.49560546875	257.344233350268	-0.0016326904296875	0.495819091796875
782	0.4931640625	257.368633350207	-0.00164154052734375	0.493377685546875
783	0.49072265625	257.393033350145	-0.0016571044921875	0.490936279296875
784	0.48828125	257.417433350083	-0.001630859375	0.488433837890625
785	0.48583984375	257.441833350022	-0.00166656494140625	0.486053466796875
786	0.4833984375	257.46623334996	-0.001624755859375	0.483612060546875
787	0.48095703125	257.490633349899	-0.0016754150390625	0.481170654296875
788	0.478515625	257.515033349837	-0.001629638671875	0.47869873046875
789	0.47607421875	257.539433349775	-0.00166259765625	0.476226806640625
790	0.4736328125	257.563833349714	-0.001640625	0.473846435546875
791	0.47119140625	257.588233349652	-0.0016546630859375	0.471343994140625
792	0.46875	257.612633349591	-0.00166412353515625	0.46893310546875
793	0.46630859375	257.637033349529	-0.00164215087890625	0.466461181640625
794	0.4638671875	257.661433349467	-0.001673583984375	0.464111328125
795	0.46142578125	257.685833349406	-0.00163360595703125	0.46160888671875
796	0.458984375	257.710233349344	-0.00168304443359375	0.45916748046875
797	0.45654296875	257.734633349283	-0.0016351318359375	0.456695556640625
798	0.4541015625	257.759033349221	-0.00167144775390625	0.454254150390625
799	0.45166015625	257.783433349159	-0.00164306640625	0.45184326171875
800	0.44921875	257.807833349098	-0.0016619873046875	0.44940185546875
801	0.44677734375	257.832233349036	-0.00166534423828125	0.44696044921875
802	0.4443359375	257.856633348975	-0.00164794921875	0.444549560546875
803	0.44189453125	257.881033348913	-0.00167510986328125	0.442108154296875
804	0.439453125	257.905433348851	-0.00163818359375	0.439666748046875
805	0.43701171875	257.92983334879	-0.00168701171875	0.437225341796875
806	0.4345703125	257.954233348728	-0.00163818359375	0.434783935546875
807	0.43212890625	257.978633348667	-0.00167694091796875	0.432281494140625
808	0.4296875	258.003033348605	-0.00164398193359375	0.42987060546875
809	0.42724609375	258.027433348543	-0.00166900634765625	0.42742919921875
810	0.4248046875	258.051833348482	-0.00166717529296875	0.425048828125
811	0.42236328125	258.07623334842	-0.00165435791015625	0.42254638671875
812	0.419921875	258.100633348359	-0.001678466796875	0.420166015625
813	0.41748046875	258.125033348297	-0.0016455078125	0.417633056640625
814	0.4150390625	258.149433348235	-0.001693115234375	0.415283203125
815	0.41259765625	258.173833348174	-0.0016448974609375	0.41278076171875
816	0.41015625	258.198233348112	-0.00168701171875	0.41033935546875
817	0.40771484375	258.222633348051	-0.0016497802734375	0.407867431640625
818	0.4052734375	258.247033347989	-0.0016802978515625	0.405487060546875
819	0.40283203125	258.271433347927	-0.0016729736328125	0.403076171875
820	0.400390625	258.295833347866	-0.0016668701171875	0.400604248046875
821	0.39794921875	258.320233347804	-0.00168670654296875	0.398223876953125
822	0.3955078125	258.344633347743	-0.00165802001953125	0.39569091796875
823	0.39306640625	258.369033347681	-0.00170318603515625	0.39324951171875
824	0.390625	258.393433347619	-0.0016546630859375	0.39080810546875
825	0.38818359375	258.417833347558	-0.00169830322265625	0.38848876953125
826	0.3857421875	258.442233347496	-0.00165679931640625	0.385894775390625
827	0.38330078125	258.466633347434	-0.0016912841796875	0.383575439453125
828	0.380859375	258.491033347373	-0.00167755126953125	0.381011962890625
829	0.37841796875	258.515433347311	-0.00167572021484375	0.378570556640625
830	0.3759765625	258.53983334725	-0.001689453125	0.376220703125
831	0.37353515625	258.564233347188	-0.00166412353515625	0.37371826171875
832	0.37109375	258.588633347126	-0.00170440673828125	0.371368408203125
833	0.36865234375	258.613033347065	-0.001656494140625	0.36883544921875
834	0.3662109375	258.637433347003	-0.0016998291015625	0.366485595703125
835	0.36376953125	258.661833346942	-0.0016546630859375	0.363983154296875
836	0.361328125	258.68623334688	-0.00169281005859375	0.361541748046875
837	0.35888671875	258.710633346818	-0.00167236328125	0.359100341796875
838	0.3564453125	258.735033346757	-0.00167572021484375	0.356658935546875
839	0.35400390625	258.759433346695	-0.00168426513671875	0.354278564453125
840	0.3515625	258.783833346634	-0.00166473388671875	0.351776123046875
841	0.34912109375	258.808233346572	-0.00170196533203125	0.349395751953125
842	0.3466796875	258.83263334651	-0.00165679931640625	0.34686279296875
843	0.34423828125	258.857033346449	-0.0017010498046875	0.344512939453125
844	0.341796875	258.881433346387	-0.0016546630859375	0.342010498046875
845	0.33935546875	258.905833346326	-0.00169769287109375	0.33953857421875
846	0.3369140625	258.930233346264	-0.0016717529296875	0.337127685546875
847	0.33447265625	258.954633346202	-0.00168304443359375	0.33465576171875
848	0.33203125	258.979033346141	-0.00168670654296875	0.332244873046875
849	0.32958984375	259.003433346079	-0.00167327880859375	0.329803466796875
850	0.3271484375	259.027833346018	-0.00170684814453125	0.327362060546875
851	0.32470703125	259.052233345956	-0.0016650390625	0.324920654296875
852	0.322265625	259.076633345894	-0.001708984375	0.322601318359375
853	0.31982421875	259.101033345833	-0.00166168212890625	0.32000732421875
854	0.3173828125	259.125433345771	-0.0017083740234375	0.317657470703125
855	0.31494140625	259.14983334571	-0.00167633056640625	0.31512451171875
856	0.3125	259.174233345648	-0.00169342041015625	0.312713623046875
857	0.31005859375	259.198633345586	-0.0016912841796875	0.310302734375
858	0.3076171875	259.223033345525	-0.00168426513671875	0.307830810546875
859	0.30517578125	259.247433345463	-0.001712646484375	0.305389404296875
860	0.302734375	259.271833345402	-0.00167449951171875	0.302886962890625
861	0.30029296875	259.29623334534	-0.0017169189453125	0.300537109375
862	0.2978515625	259.320633345278	-0.00166900634765625	0.298065185546875
863	0.29541015625	259.345033345217	-0.00171783447265625	0.295684814453125
864	0.29296875	259.369433345155	-0.00167938232421875	0.29315185546875
865	0.29052734375	259.393833345094	-0.0017010498046875	0.290679931640625
866	0.2880859375	259.418233345032	-0.00169189453125	0.288360595703125
867	0.28564453125	259.44263334497	-0.00168975830078125	0.28582763671875
868	0.283203125	259.467033344909	-0.00171234130859375	0.283477783203125
869	0.28076171875	259.491433344847	-0.00167755126953125	0.280975341796875
870	0.2783203125	259.515833344786	-0.00171661376953125	0.27862548828125
871	0.27587890625	259.540233344724	-0.001669921875	0.276031494140625
872	0.2734375	259.564633344662	-0.00171966552734375	0.273712158203125
873	0.27099609375	259.589033344601	-0.00167633056640625	0.27117919921875
874	0.2685546875	259.613433344539	-0.00170257568359375	0.26873779296875
875	0.26611328125	259.637833344477	-0.00168670654296875	0.266326904296875
876	0.263671875	259.662233344416	-0.00169189453125	0.26385498046875
877	0.26123046875	259.686633344354	-0.00170806884765625	0.26153564453125
878	0.2587890625	259.711033344293	-0.001678466796875	0.25897216796875
879	0.25634765625	259.735433344231	-0.001715087890625	0.25665283203125
880	0.25390625	259.759833344169	-0.00167083740234375	0.25408935546875
881	0.25146484375	259.784233344108	-0.0017218017578125	0.251739501953125
882	0.2490234375	259.808633344046	-0.0016754150390625	0.249237060546875
883	0.24658203125	259.833033343985	-0.00170745849609375	0.246856689453125
884	0.244140625	259.857433343923	-0.00168609619140625	0.244354248046875
885	0.24169921875	259.881833343861	-0.00169830322265625	0.24188232421875
886	0.2392578125	259.9062333438	-0.0017095947265625	0.239501953125
887	0.23681640625	259.930633343738	-0.00168548583984375	0.237030029296875
888	0.234375	259.955033343677	-0.00171875	0.23468017578125
889	0.23193359375	259.979433343615	-0.00167755126953125	0.232147216796875
890	0.2294921875	260.003833343553	-0.001728515625	0.22979736328125
891	0.22705078125	260.028233343492	-0.0016796875	0.227325439453125
892	0.224609375	260.05263334343	-0.00171539306640625	0.22479248046875
893	0.22216796875	260.077033343369	-0.00168731689453125	0.222412109375
894	0.2197265625	260.101433343307	-0.00170562744140625	0.220001220703125
895	0.21728515625	260.125833343245	-0.001710205078125	0.217559814453125
896	0.21484375	260.150233343184	-0.001690673828125	0.215057373046875
897	0.21240234375	260.174633343122	-0.00171875	0.21270751953125
898	0.2099609375	260.199033343061	-0.00167938232421875	0.210235595703125
899	0.20751953125	260.223433342999	-0.00172821044921875	0.207855224609375
900	0.205078125	260.247833342937	-0.00167755126953125	0.205322265625
901	0.20263671875	260.272233342876	-0.00171600341796875	0.202880859375
902	0.2001953125	260.296633342814	-0.00168182373046875	0.200469970703125
903	0.19775390625	260.321033342753	-0.00170501708984375	0.197967529296875
904	0.1953125	260.345433342691	-0.001702880859375	0.195556640625
905	0.19287109375	260.369833342629	-0.001688232421875	0.193115234375
906	0.1904296875	260.394233342568	-0.00171173095703125	0.190673828125
907	0.18798828125	260.418633342506	-0.00167694091796875	0.188232421875
908	0.185546875	260.443033342445	-0.00172393798828125	0.185882568359375
909	0.18310546875	260.467433342383	-0.001673583984375	0.183319091796875
910	0.1806640625	260.491833342321	-0.001715087890625	0.180938720703125
911	0.17822265625	260.51623334226	-0.00167694091796875	0.178466796875
912	0.17578125	260.540633342198	-0.00170684814453125	0.176025390625
913	0.17333984375	260.565033342137	-0.00169921875	0.173583984375
914	0.1708984375	260.589433342075	-0.00169158935546875	0.171142578125
915	0.16845703125	260.613833342013	-0.00171112060546875	0.16876220703125
916	0.166015625	260.638233341952	-0.00168182373046875	0.166229248046875
917	0.16357421875	260.66263334189	-0.00172698974609375	0.16387939453125
918	0.1611328125	260.687033341829	-0.001678466796875	0.161376953125
919	0.15869140625	260.711433341767	-0.00172210693359375	0.158935546875
920	0.15625	260.735833341705	-0.00168121337890625	0.156494140625
921	0.15380859375	260.760233341644	-0.00171630859375	0.154052734375
922	0.1513671875	260.784633341582	-0.001702880859375	0.151702880859375
923	0.14892578125	260.80903334152	-0.00170135498046875	0.149169921875
924	0.146484375	260.833433341459	-0.00171600341796875	0.146728515625
925	0.14404296875	260.857833341397	-0.00169097900390625	0.144287109375
926	0.1416015625	260.882233341336	-0.00173248291015625	0.141876220703125
927	0.13916015625	260.906633341274	-0.00168487548828125	0.139434814453125
928	0.13671875	260.931033341212	-0.00172943115234375	0.137054443359375
929	0.13427734375	260.955433341151	-0.0016839599609375	0.134552001953125
930	0.1318359375	260.979833341089	-0.0017230224609375	0.13214111328125
931	0.12939453125	261.004233341028	-0.0017022705078125	0.129638671875
932	0.126953125	261.028633340966	-0.00170562744140625	0.127227783203125
933	0.12451171875	261.053033340904	-0.00171356201171875	0.12481689453125
934	0.1220703125	261.077433340843	-0.001693115234375	0.122344970703125
935	0.11962890625	261.101833340781	-0.00173004150390625	0.11993408203125
936	0.1171875	261.12623334072	-0.00168426513671875	0.117431640625
937	0.11474609375	261.150633340658	-0.00172821044921875	0.115081787109375
938	0.1123046875	261.175033340596	-0.001680908203125	0.112548828125
939	0.10986328125	261.199433340535	-0.0017236328125	0.110137939453125
940	0.107421875	261.223833340473	-0.00169677734375	0.107635498046875
941	0.10498046875	261.248233340412	-0.00170654296875	0.105224609375
942	0.1025390625	261.27263334035	-0.00170989990234375	0.10284423828125
943	0.10009765625	261.297033340288	-0.001695556640625	0.100372314453125
944	0.09765625	261.321433340227	-0.0017291259765625	0.097930908203125
945	0.09521484375	261.345833340165	-0.0016864013671875	0.095458984375
946	0.0927734375	261.370233340104	-0.00173095703125	0.0931396484375
947	0.09033203125	261.394633340042	-0.001683349609375	0.090606689453125
948	0.087890625	261.41903333998	-0.0017303466796875	0.088134765625
949	0.08544921875	261.443433339919	-0.00169830322265625	0.085693359375
950	0.0830078125	261.467833339857	-0.0017144775390625	0.083282470703125
951	0.08056640625	261.492233339796	-0.00171295166015625	0.080810546875
952	0.078125	261.516633339734	-0.00170501708984375	0.078338623046875
953	0.07568359375	261.541033339672	-0.001734619140625	0.07598876953125
954	0.0732421875	261.565433339611	-0.001695556640625	0.073486328125
955	0.07080078125	261.589833339549	-0.00173828125	0.0711669921875
956	0.068359375	261.614233339488	-0.00169036865234375	0.068572998046875
957	0.06591796875	261.638633339426	-0.00173980712890625	0.066253662109375
958	0.0634765625	261.663033339364	-0.00170196533203125	0.063751220703125
959	0.06103515625	261.687433339303	-0.0017230224609375	0.06134033203125
960	0.05859375	261.711833339241	-0.001715087890625	0.058837890625
961	0.05615234375	261.73623333918	-0.00171234130859375	0.056427001953125
962	0.0537109375	261.760633339118	-0.00173583984375	0.054046630859375
963	0.05126953125	261.785033339056	-0.0016998291015625	0.051483154296875
964	0.048828125	261.809433338995	-0.001739501953125	0.049041748046875
965	0.04638671875	261.833833338933	-0.00169219970703125	0.04654541015625
966	0.0439453125	261.858233338872	-0.0017425537109375	0.0441864013671875
967	0.04150390625	261.88263333881	-0.00169921875	0.0416473388671875
968	0.0390625	261.907033338748	-0.00172576904296875	0.039190673828125
969	0.03662109375	261.931433338687	-0.00171051025390625	0.0367828369140625
970	0.0341796875	261.955833338625	-0.00171417236328125	0.0343231201171875
971	0.03173828125	261.980233338563	-0.00173126220703125	0.0319000244140625
972	0.029296875	262.004633338502	-0.00170013427734375	0.02943115234375
973	0.02685546875	262.02903333844	-0.00173675537109375	0.027069091796875
974	0.0244140625	262.053433338379	-0.00169097900390625	0.0245758056640625
975	0.02197265625	262.077833338317	-0.001741943359375	0.02220458984375
976	0.01953125	262.102233338255	-0.00169525146484375	0.019683837890625
977	0.01708984375	262.126633338194	-0.00172607421875	0.0172119140625
978	0.0146484375	262.151033338132	-0.001705322265625	0.014825439453125
979	0.01220703125	262.175433338071	-0.0017156982421875	0.012371826171875
980	0.009765625	262.199833338009	-0.00172821044921875	0.00994262695312501
981	0.00732421875	262.224233337947	-0.001702880859375	0.0074798583984375
982	0.0048828125	262.248633337886	-0.0017376708984375	0.00510253906249999
983	0.00244140625	262.273033337824	-0.00169525146484375	0.0026123046875
984	0	262.297433337763	-0.0017474365234375	0.000234985351562494
985	0.00244140625	262.321833337701	-0.001697998046875	0.00258789062500001
986	0.0048828125	262.346233337639	-0.001732177734375	0.00502624511718749
987	0.00732421875	262.370633337578	-0.001705322265625	0.00750122070312501
988	0.009765625	262.395033337516	-0.00172149658203125	0.0099151611328125
989	0.01220703125	262.419433337455	-0.00172821044921875	0.0123779296875
990	0.0146484375	262.443833337393	-0.00170654296875	0.014801025390625
991	0.01708984375	262.468233337331	-0.0017364501953125	0.017303466796875
992	0.01953125	262.49263333727	-0.00169647216796875	0.0197021484375
993	0.02197265625	262.517033337208	-0.0017462158203125	0.02218017578125
