Index	Potential applied (V)	Time (s)	WE(1).Current (A)	WE(1).Potential (V)
1	0.00244140625	6.63494298324838	-0.001690673828125	0.00258789062500001
2	0.0048828125	6.65934298318678	-0.0016827392578125	0.00507507324218751
3	0.00732421875	6.68374298312517	-0.0016778564453125	0.00748291015624999
4	0.009765625	6.70814298306357	-0.00170257568359375	0.00994873046875
5	0.01220703125	6.73254298300196	-0.0016650390625	0.012371826171875
6	0.0146484375	6.75694298294036	-0.00170501708984375	0.0148773193359375
7	0.01708984375	6.78134298287875	-0.0016571044921875	0.0172515869140625
8	0.01953125	6.80574298281715	-0.00170501708984375	0.019769287109375
9	0.02197265625	6.83014298275555	-0.0016650390625	0.022113037109375
10	0.0244140625	6.85454298269394	-0.0016864013671875	0.024554443359375
11	0.02685546875	6.87894298263234	-0.00167572021484375	0.027056884765625
12	0.029296875	6.90334298257073	-0.0016729736328125	0.0294464111328125
13	0.03173828125	6.92774298250913	-0.00169464111328125	0.0319183349609375
14	0.0341796875	6.95214298244753	-0.001658935546875	0.0343170166015625
15	0.03662109375	6.97654298238592	-0.0016973876953125	0.03685302734375
16	0.0390625	7.00094298232432	-0.00164947509765625	0.039215087890625
17	0.04150390625	7.02534298226271	-0.00169769287109375	0.0417327880859375
18	0.0439453125	7.04974298220111	-0.00165557861328125	0.0441009521484375
19	0.04638671875	7.07414298213951	-0.001678466796875	0.0465240478515625
20	0.048828125	7.0985429820779	-0.00166595458984375	0.0489898681640625
21	0.05126953125	7.1229429820163	-0.0016656494140625	0.051513671875
22	0.0537109375	7.14734298195469	-0.00168609619140625	0.05401611328125
23	0.05615234375	7.17174298189309	-0.001651611328125	0.05645751953125
24	0.05859375	7.19614298183149	-0.001689453125	0.05889892578125
25	0.06103515625	7.22054298176988	-0.00164306640625	0.061279296875
26	0.0634765625	7.24494298170828	-0.00169189453125	0.063873291015625
27	0.06591796875	7.26934298164667	-0.00165008544921875	0.066192626953125
28	0.068359375	7.29374298158507	-0.00167510986328125	0.068603515625
29	0.07080078125	7.31814298152347	-0.00166168212890625	0.071075439453125
30	0.0732421875	7.34254298146186	-0.00166412353515625	0.07354736328125
31	0.07568359375	7.36694298140026	-0.00168304443359375	0.075927734375
32	0.078125	7.39134298133865	-0.0016510009765625	0.07830810546875
33	0.08056640625	7.41574298127705	-0.001688232421875	0.080841064453125
34	0.0830078125	7.44014298121544	-0.00164276123046875	0.083251953125
35	0.08544921875	7.46454298115384	-0.00169281005859375	0.08575439453125
36	0.087890625	7.48894298109224	-0.00164947509765625	0.088165283203125
37	0.09033203125	7.51334298103063	-0.00167724609375	0.090545654296875
38	0.0927734375	7.53774298096903	-0.001661376953125	0.093017578125
39	0.09521484375	7.56214298090742	-0.001666259765625	0.095458984375
40	0.09765625	7.58654298084582	-0.0016827392578125	0.097930908203125
41	0.10009765625	7.61094298078422	-0.00165252685546875	0.100372314453125
42	0.1025390625	7.63534298072261	-0.0016876220703125	0.10284423828125
43	0.10498046875	7.65974298066101	-0.00164215087890625	0.105224609375
44	0.107421875	7.6841429805994	-0.001690673828125	0.107757568359375
45	0.10986328125	7.7085429805378	-0.00164459228515625	0.110107421875
46	0.1123046875	7.7329429804762	-0.00167236328125	0.11248779296875
47	0.11474609375	7.75734298041459	-0.00165283203125	0.114990234375
48	0.1171875	7.78174298035299	-0.001658935546875	0.11737060546875
49	0.11962890625	7.80614298029138	-0.00167144775390625	0.11993408203125
50	0.1220703125	7.83054298022978	-0.00164276123046875	0.122314453125
51	0.12451171875	7.85494298016818	-0.00167572021484375	0.124786376953125
52	0.126953125	7.87934298010657	-0.00163116455078125	0.12713623046875
53	0.12939453125	7.90374298004497	-0.00167938232421875	0.129669189453125
54	0.1318359375	7.92814297998336	-0.00163238525390625	0.13214111328125
55	0.13427734375	7.95254297992176	-0.00166168212890625	0.134490966796875
56	0.13671875	7.97694297986015	-0.00164031982421875	0.136993408203125
57	0.13916015625	8.00134297979855	-0.0016497802734375	0.13946533203125
58	0.1416015625	8.02574297973695	-0.0016607666015625	0.14190673828125
59	0.14404296875	8.05014297967534	-0.001634521484375	0.144287109375
60	0.146484375	8.07454297961374	-0.00166748046875	0.14678955078125
61	0.14892578125	8.09894297955213	-0.00162384033203125	0.149200439453125
62	0.1513671875	8.12334297949053	-0.00167144775390625	0.1517333984375
63	0.15380859375	8.14774297942893	-0.00162445068359375	0.154052734375
64	0.15625	8.17214297936732	-0.00165618896484375	0.156402587890625
65	0.15869140625	8.19654297930572	-0.00163330078125	0.158935546875
66	0.1611328125	8.22094297924411	-0.0016461181640625	0.161346435546875
67	0.16357421875	8.24534297918251	-0.0016558837890625	0.163848876953125
68	0.166015625	8.26974297912091	-0.00163238525390625	0.16619873046875
69	0.16845703125	8.2941429790593	-0.00166412353515625	0.168731689453125
70	0.1708984375	8.3185429789977	-0.00162322998046875	0.17108154296875
71	0.17333984375	8.34294297893609	-0.00167266845703125	0.173583984375
72	0.17578125	8.36734297887449	-0.00162567138671875	0.17596435546875
73	0.17822265625	8.39174297881289	-0.001658935546875	0.178375244140625
74	0.1806640625	8.41614297875128	-0.00163330078125	0.180877685546875
75	0.18310546875	8.44054297868968	-0.00164794921875	0.183349609375
76	0.185546875	8.46494297862807	-0.0016546630859375	0.18572998046875
77	0.18798828125	8.48934297856647	-0.00163238525390625	0.18817138671875
78	0.1904296875	8.51374297850487	-0.0016607666015625	0.19073486328125
79	0.19287109375	8.53814297844326	-0.00162017822265625	0.193084716796875
80	0.1953125	8.56254297838166	-0.00166778564453125	0.195556640625
81	0.19775390625	8.58694297832005	-0.00161865234375	0.19793701171875
82	0.2001953125	8.61134297825845	-0.00165191650390625	0.200469970703125
83	0.20263671875	8.63574297819684	-0.00162322998046875	0.202850341796875
84	0.205078125	8.66014297813524	-0.00163909912109375	0.205291748046875
85	0.20751953125	8.68454297807364	-0.0016424560546875	0.207733154296875
86	0.2099609375	8.70894297801203	-0.0016217041015625	0.210113525390625
87	0.21240234375	8.73334297795043	-0.00164886474609375	0.212677001953125
88	0.21484375	8.75774297788882	-0.00160980224609375	0.21502685546875
89	0.21728515625	8.78214297782722	-0.00165679931640625	0.217559814453125
90	0.2197265625	8.80654297776562	-0.0016082763671875	0.219940185546875
91	0.22216796875	8.83094297770401	-0.00164337158203125	0.222381591796875
92	0.224609375	8.85534297764241	-0.00161376953125	0.22479248046875
93	0.22705078125	8.8797429775808	-0.00163330078125	0.227294921875
94	0.2294921875	8.9041429775192	-0.00163543701171875	0.229736328125
95	0.23193359375	8.9285429774576	-0.00161865234375	0.232086181640625
96	0.234375	8.95294297739599	-0.00164581298828125	0.234710693359375
97	0.23681640625	8.97734297733439	-0.00160919189453125	0.23699951171875
98	0.2392578125	9.00174297727278	-0.0016571044921875	0.239501953125
99	0.24169921875	9.02614297721118	-0.00160919189453125	0.241912841796875
100	0.244140625	9.05054297714958	-0.00164642333984375	0.24432373046875
101	0.24658203125	9.07494297708797	-0.001614990234375	0.24676513671875
102	0.2490234375	9.09934297702637	-0.00163726806640625	0.249237060546875
103	0.25146484375	9.12374297696476	-0.0016375732421875	0.251708984375
104	0.25390625	9.14814297690316	-0.00162200927734375	0.254119873046875
105	0.25634765625	9.17254297684156	-0.0016473388671875	0.256591796875
106	0.2587890625	9.19694297677995	-0.00161163330078125	0.259063720703125
107	0.26123046875	9.22134297671835	-0.0016583251953125	0.261505126953125
108	0.263671875	9.24574297665674	-0.0016094970703125	0.263885498046875
109	0.26611328125	9.27014297659514	-0.0016473388671875	0.266357421875
110	0.2685546875	9.29454297653353	-0.00161346435546875	0.268768310546875
111	0.27099609375	9.31894297647193	-0.00163726806640625	0.271148681640625
112	0.2734375	9.34334297641033	-0.00163482666015625	0.27362060546875
113	0.27587890625	9.36774297634872	-0.00162109375	0.276031494140625
114	0.2783203125	9.39214297628712	-0.00164337158203125	0.278533935546875
115	0.28076171875	9.41654297622551	-0.00160919189453125	0.28094482421875
116	0.283203125	9.44094297616391	-0.0016546630859375	0.283477783203125
117	0.28564453125	9.46534297610231	-0.00160552978515625	0.285858154296875
118	0.2880859375	9.4897429760407	-0.00164398193359375	0.288299560546875
119	0.29052734375	9.5141429759791	-0.00160797119140625	0.290740966796875
120	0.29296875	9.53854297591749	-0.0016339111328125	0.293212890625
121	0.29541015625	9.56294297585589	-0.00162841796875	0.29559326171875
122	0.2978515625	9.58734297579429	-0.00161773681640625	0.298004150390625
123	0.30029296875	9.61174297573268	-0.00163787841796875	0.300537109375
124	0.302734375	9.63614297567108	-0.0016058349609375	0.30291748046875
125	0.30517578125	9.66054297560947	-0.00165008544921875	0.305419921875
126	0.3076171875	9.68494297554787	-0.0016015625	0.30780029296875
127	0.31005859375	9.70934297548627	-0.0016412353515625	0.31024169921875
128	0.3125	9.73374297542466	-0.00160369873046875	0.312652587890625
129	0.31494140625	9.75814297536306	-0.00163177490234375	0.315185546875
130	0.3173828125	9.78254297530145	-0.001624755859375	0.317596435546875
131	0.31982421875	9.80694297523985	-0.00161651611328125	0.32000732421875
132	0.322265625	9.83134297517825	-0.00163604736328125	0.32244873046875
133	0.32470703125	9.85574297511664	-0.00160614013671875	0.32489013671875
134	0.3271484375	9.88014297505504	-0.00165008544921875	0.327392578125
135	0.32958984375	9.90454297499343	-0.0016021728515625	0.329803466796875
136	0.33203125	9.92894297493183	-0.00164276123046875	0.332244873046875
137	0.33447265625	9.95334297487022	-0.00160369873046875	0.3345947265625
138	0.3369140625	9.97774297480862	-0.00163421630859375	0.33709716796875
139	0.33935546875	10.002142974747	-0.00162445068359375	0.339599609375
140	0.341796875	10.0265429746854	-0.0016180419921875	0.342010498046875
141	0.34423828125	10.0509429746238	-0.00163482666015625	0.344482421875
142	0.3466796875	10.0753429745622	-0.0016064453125	0.34686279296875
143	0.34912109375	10.0997429745006	-0.0016485595703125	0.349365234375
144	0.3515625	10.124142974439	-0.001600341796875	0.351715087890625
145	0.35400390625	10.1485429743774	-0.0016412353515625	0.354248046875
146	0.3564453125	10.1729429743158	-0.00160064697265625	0.35662841796875
147	0.35888671875	10.1973429742542	-0.00163177490234375	0.35906982421875
148	0.361328125	10.2217429741926	-0.00161865234375	0.36151123046875
149	0.36376953125	10.246142974131	-0.00161346435546875	0.363983154296875
150	0.3662109375	10.2705429740694	-0.0016278076171875	0.366455078125
151	0.36865234375	10.2949429740078	-0.001600341796875	0.368865966796875
152	0.37109375	10.3193429739462	-0.00164093017578125	0.371337890625
153	0.37353515625	10.3437429738846	-0.00159271240234375	0.37371826171875
154	0.3759765625	10.368142973823	-0.00163360595703125	0.376190185546875
155	0.37841796875	10.3925429737614	-0.00159149169921875	0.378631591796875
156	0.380859375	10.4169429736997	-0.001624755859375	0.381072998046875
157	0.38330078125	10.4413429736381	-0.00160919189453125	0.38348388671875
158	0.3857421875	10.4657429735765	-0.0016070556640625	0.385894775390625
159	0.38818359375	10.4901429735149	-0.00161895751953125	0.388427734375
160	0.390625	10.5145429734533	-0.00159393310546875	0.39080810546875
161	0.39306640625	10.5389429733917	-0.00163299560546875	0.39324951171875
162	0.3955078125	10.5633429733301	-0.0015863037109375	0.395660400390625
163	0.39794921875	10.5877429732685	-0.00162811279296875	0.398162841796875
164	0.400390625	10.6121429732069	-0.00158538818359375	0.40057373046875
165	0.40283203125	10.6365429731453	-0.00162109375	0.403045654296875
166	0.4052734375	10.6609429730837	-0.00160369873046875	0.405487060546875
167	0.40771484375	10.6853429730221	-0.00160430908203125	0.407867431640625
168	0.41015625	10.7097429729605	-0.001614990234375	0.410369873046875
169	0.41259765625	10.7341429728989	-0.00159271240234375	0.412841796875
170	0.4150390625	10.7585429728373	-0.001630859375	0.415313720703125
171	0.41748046875	10.7829429727757	-0.00158538818359375	0.417694091796875
172	0.419921875	10.8073429727141	-0.00162750244140625	0.420196533203125
173	0.42236328125	10.8317429726525	-0.00158355712890625	0.42254638671875
174	0.4248046875	10.8561429725909	-0.00162109375	0.425018310546875
175	0.42724609375	10.8805429725293	-0.00160064697265625	0.427459716796875
176	0.4296875	10.9049429724677	-0.00160400390625	0.42987060546875
177	0.43212890625	10.9293429724061	-0.0016119384765625	0.432342529296875
178	0.4345703125	10.9537429723445	-0.00159149169921875	0.434722900390625
179	0.43701171875	10.9781429722829	-0.001627197265625	0.437255859375
180	0.439453125	11.0025429722212	-0.00158203125	0.439605712890625
181	0.44189453125	11.0269429721596	-0.0016229248046875	0.442169189453125
182	0.4443359375	11.051342972098	-0.0015771484375	0.444549560546875
183	0.44677734375	11.0757429720364	-0.00161468505859375	0.446990966796875
184	0.44921875	11.1001429719748	-0.001590576171875	0.449432373046875
185	0.45166015625	11.1245429719132	-0.00159576416015625	0.45184326171875
186	0.4541015625	11.1489429718516	-0.001600341796875	0.45428466796875
187	0.45654296875	11.17334297179	-0.00158203125	0.456695556640625
188	0.458984375	11.1977429717284	-0.001614990234375	0.459136962890625
189	0.46142578125	11.2221429716668	-0.00157135009765625	0.461517333984375
190	0.4638671875	11.2465429716052	-0.0016119384765625	0.464111328125
191	0.46630859375	11.2709429715436	-0.00156524658203125	0.4664306640625
192	0.46875	11.295342971482	-0.00160491943359375	0.4688720703125
193	0.47119140625	11.3197429714204	-0.0015789794921875	0.47137451171875
194	0.4736328125	11.3441429713588	-0.00158721923828125	0.473785400390625
195	0.47607421875	11.3685429712972	-0.00158966064453125	0.476226806640625
196	0.478515625	11.3929429712356	-0.00157470703125	0.478668212890625
197	0.48095703125	11.417342971174	-0.0016070556640625	0.481109619140625
198	0.4833984375	11.4417429711124	-0.00156494140625	0.48358154296875
199	0.48583984375	11.4661429710508	-0.0016064453125	0.486083984375
200	0.48828125	11.4905429709892	-0.00156097412109375	0.4884033203125
201	0.49072265625	11.5149429709276	-0.0016033935546875	0.49090576171875
202	0.4931640625	11.539342970866	-0.00157470703125	0.493316650390625
203	0.49560546875	11.5637429708044	-0.00158660888671875	0.4957275390625
204	0.498046875	11.5881429707428	-0.00158721923828125	0.498260498046875
205	0.50048828125	11.6125429706811	-0.00157562255859375	0.500640869140625
206	0.5029296875	11.6369429706195	-0.001605224609375	0.50311279296875
207	0.50537109375	11.6613429705579	-0.0015643310546875	0.505523681640625
208	0.5078125	11.6857429704963	-0.0016046142578125	0.508087158203125
209	0.51025390625	11.7101429704347	-0.0015576171875	0.5103759765625
210	0.5126953125	11.7345429703731	-0.0016009521484375	0.512908935546875
211	0.51513671875	11.7589429703115	-0.00156829833984375	0.515289306640625
212	0.517578125	11.7833429702499	-0.00158172607421875	0.517669677734375
213	0.52001953125	11.8077429701883	-0.0015777587890625	0.520172119140625
214	0.5224609375	11.8321429701267	-0.00156707763671875	0.5225830078125
215	0.52490234375	11.8565429700651	-0.001593017578125	0.525115966796875
216	0.52734375	11.8809429700035	-0.0015533447265625	0.5274658203125
217	0.52978515625	11.9053429699419	-0.00159149169921875	0.530059814453125
218	0.5322265625	11.9297429698803	-0.00154388427734375	0.532379150390625
219	0.53466796875	11.9541429698187	-0.00158660888671875	0.5347900390625
220	0.537109375	11.9785429697571	-0.00155059814453125	0.5372314453125
221	0.53955078125	12.0029429696955	-0.00156524658203125	0.53961181640625
222	0.5419921875	12.0273429696339	-0.00155792236328125	0.542205810546875
223	0.54443359375	12.0517429695723	-0.0015496826171875	0.544586181640625
224	0.546875	12.0761429695107	-0.00157257080078125	0.547027587890625
225	0.54931640625	12.1005429694491	-0.001534423828125	0.5494384765625
226	0.5517578125	12.1249429693875	-0.0015716552734375	0.551971435546875
227	0.55419921875	12.1493429693259	-0.001524658203125	0.554351806640625
228	0.556640625	12.1737429692643	-0.001568603515625	0.55682373046875
229	0.55908203125	12.1981429692026	-0.0015313720703125	0.559234619140625
230	0.5615234375	12.222542969141	-0.00154937744140625	0.561614990234375
231	0.56396484375	12.2469429690794	-0.00154052734375	0.56414794921875
232	0.56640625	12.2713429690178	-0.0015362548828125	0.56658935546875
233	0.56884765625	12.2957429689562	-0.00155731201171875	0.56903076171875
234	0.5712890625	12.3201429688946	-0.00152252197265625	0.5714111328125
235	0.57373046875	12.344542968833	-0.001558837890625	0.5738525390625
236	0.576171875	12.3689429687714	-0.0015130615234375	0.57623291015625
237	0.57861328125	12.3933429687098	-0.0015582275390625	0.57879638671875
238	0.5810546875	12.4177429686482	-0.00151824951171875	0.5811767578125
239	0.58349609375	12.4421429685866	-0.001539306640625	0.58355712890625
240	0.5859375	12.466542968525	-0.001527099609375	0.5860595703125
241	0.58837890625	12.4909429684634	-0.0015252685546875	0.588531494140625
242	0.5908203125	12.5153429684018	-0.0015435791015625	0.590972900390625
243	0.59326171875	12.5397429683402	-0.0015093994140625	0.5933837890625
244	0.595703125	12.5641429682786	-0.0015435791015625	0.595855712890625
245	0.59814453125	12.588542968217	-0.00149749755859375	0.5982666015625
246	0.6005859375	12.6129429681554	-0.00154144287109375	0.600799560546875
247	0.60302734375	12.6373429680938	-0.0014984130859375	0.603118896484375
248	0.60546875	12.6617429680322	-0.00151947021484375	0.6055908203125
249	0.60791015625	12.6861429679706	-0.001502685546875	0.608062744140625
250	0.6103515625	12.710542967909	-0.0015020751953125	0.610443115234375
251	0.61279296875	12.7349429678474	-0.00151641845703125	0.612945556640625
252	0.615234375	12.7593429677858	-0.001483154296875	0.6153564453125
253	0.61767578125	12.7837429677242	-0.00151458740234375	0.617828369140625
254	0.6201171875	12.8081429676625	-0.0014678955078125	0.620208740234375
255	0.62255859375	12.8325429676009	-0.001510009765625	0.62274169921875
256	0.625	12.8569429675393	-0.00146575927734375	0.62506103515625
257	0.62744140625	12.8813429674777	-0.00148773193359375	0.62750244140625
258	0.6298828125	12.9057429674161	-0.00146820068359375	0.629974365234375
259	0.63232421875	12.9301429673545	-0.0014703369140625	0.63250732421875
260	0.634765625	12.9545429672929	-0.00148193359375	0.634918212890625
261	0.63720703125	12.9789429672313	-0.001451416015625	0.637359619140625
262	0.6396484375	13.0033429671697	-0.00148101806640625	0.63983154296875
263	0.64208984375	13.0277429671081	-0.00143707275390625	0.64215087890625
264	0.64453125	13.0521429670465	-0.00148040771484375	0.644622802734375
265	0.64697265625	13.0765429669849	-0.00143524169921875	0.647064208984375
266	0.6494140625	13.1009429669233	-0.0014593505859375	0.649505615234375
267	0.65185546875	13.1253429668617	-0.00143768310546875	0.651947021484375
268	0.654296875	13.1497429668001	-0.0014422607421875	0.65435791015625
269	0.65673828125	13.1741429667385	-0.001451416015625	0.6568603515625
270	0.6591796875	13.1985429666769	-0.0014227294921875	0.659271240234375
271	0.66162109375	13.2229429666153	-0.0014508056640625	0.6617431640625
272	0.6640625	13.2473429665537	-0.00140655517578125	0.664093017578125
273	0.66650390625	13.2717429664921	-0.00144866943359375	0.666656494140625
274	0.6689453125	13.2961429664305	-0.00140106201171875	0.66900634765625
275	0.67138671875	13.3205429663689	-0.0014251708984375	0.671417236328125
276	0.673828125	13.3449429663073	-0.00140045166015625	0.67388916015625
277	0.67626953125	13.3693429662457	-0.00140594482421875	0.676361083984375
278	0.6787109375	13.393742966184	-0.0014105224609375	0.67877197265625
279	0.68115234375	13.4181429661224	-0.00138214111328125	0.681182861328125
280	0.68359375	13.4425429660608	-0.00140594482421875	0.68365478515625
281	0.68603515625	13.4669429659992	-0.0013616943359375	0.686065673828125
282	0.6884765625	13.4913429659376	-0.00140106201171875	0.6885986328125
283	0.69091796875	13.515742965876	-0.00135223388671875	0.690948486328125
284	0.693359375	13.5401429658144	-0.00137603759765625	0.693389892578125
285	0.69580078125	13.5645429657528	-0.00134765625	0.695831298828125
286	0.6982421875	13.5889429656912	-0.00135345458984375	0.698272705078125
287	0.70068359375	13.6133429656296	-0.00135467529296875	0.70074462890625
288	0.703125	13.637742965568	-0.001326904296875	0.703125
289	0.70556640625	13.6621429655064	-0.00134796142578125	0.70556640625
290	0.7080078125	13.6865429654448	-0.00130462646484375	0.7080078125
291	0.71044921875	13.7109429653832	-0.001341552734375	0.71051025390625
292	0.712890625	13.7353429653216	-0.0012921142578125	0.712860107421875
293	0.71533203125	13.75974296526	-0.00131500244140625	0.715301513671875
294	0.7177734375	13.7841429651984	-0.00128387451171875	0.7177734375
295	0.72021484375	13.8085429651368	-0.00129058837890625	0.720184326171875
296	0.72265625	13.8329429650752	-0.0012884521484375	0.722686767578125
297	0.72509765625	13.8573429650136	-0.00126190185546875	0.725067138671875
298	0.7275390625	13.881742964952	-0.001279296875	0.727569580078125
299	0.72998046875	13.9061429648904	-0.001236572265625	0.729949951171875
300	0.732421875	13.9305429648288	-0.0012713623046875	0.732452392578125
301	0.73486328125	13.9549429647672	-0.001220703125	0.734832763671875
302	0.7373046875	13.9793429647056	-0.00124237060546875	0.737274169921875
303	0.73974609375	14.0037429646439	-0.00120849609375	0.73968505859375
304	0.7421875	14.0281429645823	-0.0012152099609375	0.74212646484375
305	0.74462890625	14.0525429645207	-0.00120941162109375	0.74456787109375
306	0.7470703125	14.0769429644591	-0.00118255615234375	0.747039794921875
307	0.74951171875	14.1013429643975	-0.00119659423828125	0.749542236328125
308	0.751953125	14.1257429643359	-0.0011529541015625	0.751953125
309	0.75439453125	14.1501429642743	-0.0011834716796875	0.7537841796875
310	0.7568359375	14.1745429642127	-0.0011309814453125	0.7562255859375
311	0.75927734375	14.1989429641511	-0.00115081787109375	0.75836181640625
312	0.76171875	14.2233429640895	-0.00111328125	0.76141357421875
313	0.76416015625	14.2477429640279	-0.0011187744140625	0.76385498046875
314	0.7666015625	14.2721429639663	-0.001107177734375	0.76568603515625
315	0.76904296875	14.2965429639047	-0.00108123779296875	0.76812744140625
316	0.771484375	14.3209429638431	-0.0010894775390625	0.7708740234375
317	0.77392578125	14.3453429637815	-0.0010467529296875	0.77362060546875
318	0.7763671875	14.3697429637199	-0.00107177734375	0.7757568359375
319	0.77880859375	14.3941429636583	-0.0010186767578125	0.77789306640625
320	0.78125	14.4185429635967	-0.0010345458984375	0.78033447265625
321	0.78369140625	14.4429429635351	-0.0009930419921875	0.78277587890625
322	0.7861328125	14.4673429634735	-0.00099639892578125	0.78521728515625
323	0.78857421875	14.4917429634119	-0.00098052978515625	0.78765869140625
324	0.791015625	14.5161429633503	-0.0009539794921875	0.7904052734375
325	0.79345703125	14.5405429632887	-0.00095672607421875	0.792236328125
326	0.7958984375	14.5649429632271	-0.0009130859375	0.7952880859375
327	0.79833984375	14.5893429631654	-0.0009326171875	0.79742431640625
328	0.80078125	14.6137429631038	-0.00087799072265625	0.79986572265625
329	0.80322265625	14.6381429630422	-0.00088958740234375	0.80230712890625
330	0.8056640625	14.6625429629806	-0.000845947265625	0.80474853515625
331	0.80810546875	14.686942962919	-0.000845947265625	0.80780029296875
332	0.810546875	14.7113429628574	-0.00082489013671875	0.8099365234375
333	0.81298828125	14.7357429627958	-0.0007965087890625	0.8123779296875
334	0.8154296875	14.7601429627342	-0.0007928466796875	0.81512451171875
335	0.81787109375	14.7845429626726	-0.0007489013671875	0.81756591796875
336	0.8203125	14.808942962611	-0.00076080322265625	0.8197021484375
337	0.82275390625	14.8333429625494	-0.00070587158203125	0.82183837890625
338	0.8251953125	14.8577429624878	-0.0007110595703125	0.8245849609375
339	0.82763671875	14.8821429624262	-0.00066375732421875	0.8270263671875
340	0.830078125	14.9065429623646	-0.0006591796875	0.828857421875
341	0.83251953125	14.930942962303	-0.00063262939453125	0.831298828125
342	0.8349609375	14.9553429622414	-0.000601806640625	0.8343505859375
343	0.83740234375	14.9797429621798	-0.0005908203125	0.83648681640625
344	0.83984375	15.0041429621182	-0.00054473876953125	0.83953857421875
345	0.84228515625	15.0285429620566	-0.000548095703125	0.84136962890625
346	0.8447265625	15.052942961995	-0.00049102783203125	0.84381103515625
347	0.84716796875	15.0773429619334	-0.00048858642578125	0.84625244140625
348	0.849609375	15.1017429618718	-0.00043865966796875	0.84869384765625
349	0.85205078125	15.1261429618102	-0.000427581787109375	0.85113525390625
350	0.8544921875	15.1505429617486	-0.0003955078125	0.85357666015625
351	0.85693359375	15.174942961687	-0.000361236572265625	0.85601806640625
352	0.859375	15.1993429616253	-0.00034295654296875	0.858154296875
353	0.86181640625	15.2237429615637	-0.000294403076171875	0.860595703125
354	0.8642578125	15.2481429615021	-0.00028863525390625	0.86334228515625
355	0.86669921875	15.2725429614405	-0.000230560302734375	0.8660888671875
356	0.869140625	15.2969429613789	-0.000220489501953125	0.86822509765625
357	0.87158203125	15.3213429613173	-0.0001676025390625	0.870361328125
358	0.8740234375	15.3457429612557	-0.000149993896484375	0.87310791015625
359	0.87646484375	15.3701429611941	-0.0001121826171875	0.87554931640625
360	0.87890625	15.3945429611325	-7.4188232421875E-05	0.8782958984375
361	0.88134765625	15.4189429610709	-4.8126220703125E-05	0.880126953125
362	0.8837890625	15.4433429610093	1.9561767578125E-06	0.88287353515625
363	0.88623046875	15.4677429609477	1.71966552734375E-05	0.8856201171875
364	0.888671875	15.4921429608861	7.5958251953125E-05	0.88775634765625
365	0.89111328125	15.5165429608245	9.454345703125E-05	0.89019775390625
366	0.8935546875	15.5409429607629	0.000151275634765625	0.892333984375
367	0.89599609375	15.5653429607013	0.000175689697265625	0.8953857421875
368	0.8984375	15.5897429606397	0.000220062255859375	0.89752197265625
369	0.90087890625	15.6141429605781	0.000261932373046875	0.89996337890625
370	0.9033203125	15.6385429605165	0.000296600341796875	0.90301513671875
371	0.90576171875	15.6629429604549	0.000349517822265625	0.9051513671875
372	0.908203125	15.6873429603933	0.000375335693359375	0.9075927734375
373	0.91064453125	15.7117429603317	0.0004365234375	0.9100341796875
374	0.9130859375	15.7361429602701	0.00046527099609375	0.91217041015625
375	0.91552734375	15.7605429602085	0.0005255126953125	0.914306640625
376	0.91796875	15.7849429601469	0.00055908203125	0.91705322265625
377	0.92041015625	15.8093429600852	0.000609130859375	0.9197998046875
378	0.9228515625	15.8337429600236	0.00065673828125	0.921630859375
379	0.92529296875	15.858142959962	0.00069976806640625	0.9246826171875
380	0.927734375	15.8825429599004	0.0007562255859375	0.92681884765625
381	0.93017578125	15.9069429598388	0.00079193115234375	0.928955078125
382	0.9326171875	15.9313429597772	0.00085540771484375	0.9320068359375
383	0.93505859375	15.9557429597156	0.0008935546875	0.9344482421875
384	0.9375	15.980142959654	0.00095733642578125	0.9368896484375
385	0.93994140625	16.0045429595924	0.0009991455078125	0.9393310546875
386	0.9423828125	16.0289429595308	0.00105499267578125	0.94207763671875
387	0.94482421875	16.0533429594692	0.00110748291015625	0.94390869140625
388	0.947265625	16.0777429594076	0.001158447265625	0.94635009765625
389	0.94970703125	16.102142959346	0.0012188720703125	0.9490966796875
390	0.9521484375	16.1265429592844	0.00126495361328125	0.95184326171875
391	0.95458984375	16.1509429592228	0.0013299560546875	0.95306396484375
392	0.95703125	16.1753429591612	0.0013775634765625	0.9564208984375
393	0.95947265625	16.1997429590996	0.001444091796875	0.9588623046875
394	0.9619140625	16.224142959038	0.0014947509765625	0.960693359375
395	0.96435546875	16.2485429589764	0.00155609130859375	0.96343994140625
396	0.966796875	16.2729429589148	0.00161468505859375	0.96588134765625
397	0.96923828125	16.2973429588532	0.00167327880859375	0.968017578125
398	0.9716796875	16.3217429587916	0.00173736572265625	0.9710693359375
399	0.97412109375	16.34614295873	0.00179290771484375	0.9735107421875
400	0.9765625	16.3705429586684	0.0018609619140625	0.97564697265625
401	0.97900390625	16.3949429586067	0.0019183349609375	0.9783935546875
402	0.9814453125	16.4193429585451	0.00198822021484375	0.98052978515625
403	0.98388671875	16.4437429584835	0.0020477294921875	0.982666015625
404	0.986328125	16.4681429584219	0.00211456298828125	0.9857177734375
405	0.98876953125	16.4925429583603	0.00217926025390625	0.987548828125
406	0.9912109375	16.5169429582987	0.00224609375	0.9906005859375
407	0.99365234375	16.5413429582371	0.0023150634765625	0.9930419921875
408	0.99609375	16.5657429581755	0.0023797607421875	0.9954833984375
409	0.99853515625	16.5901429581139	0.00245147705078125	0.99761962890625
410	1.0009765625	16.6145429580523	0.00251861572265625	1.0003662109375
411	1.00341796875	16.6389429579907	0.00259185791015625	1.0028076171875
412	1.005859375	16.6633429579291	0.002659912109375	1.00494384765625
413	1.00830078125	16.6877429578675	0.0027325439453125	1.007080078125
414	1.0107421875	16.7121429578059	0.002803955078125	1.00982666015625
415	1.01318359375	16.7365429577443	0.00287750244140625	1.01226806640625
416	1.015625	16.7609429576827	0.00295166015625	1.014404296875
417	1.01806640625	16.7853429576211	0.00302520751953125	1.016845703125
418	1.0205078125	16.8097429575595	0.0030999755859375	1.01959228515625
419	1.02294921875	16.8341429574979	0.003175048828125	1.02203369140625
420	1.025390625	16.8585429574363	0.0032513427734375	1.02447509765625
421	1.02783203125	16.8829429573747	0.0033270263671875	1.026611328125
422	1.0302734375	16.9073429573131	0.00340301513671875	1.029052734375
423	1.03271484375	16.9317429572515	0.00347900390625	1.03179931640625
424	1.03515625	16.9561429571899	0.00355682373046875	1.033935546875
425	1.03759765625	16.9805429571283	0.0036328125	1.03668212890625
426	1.0400390625	17.0049429570666	0.00371002197265625	1.03912353515625
427	1.04248046875	17.029342957005	0.003782958984375	1.041259765625
428	1.044921875	17.0537429569434	0.00385894775390625	1.043701171875
429	1.04736328125	17.0781429568818	0.00393096923828125	1.04644775390625
430	1.0498046875	17.1025429568202	0.0040032958984375	1.04888916015625
431	1.05224609375	17.1269429567586	0.00407196044921875	1.051025390625
432	1.0546875	17.151342956697	0.00413848876953125	1.053466796875
433	1.05712890625	17.1757429566354	0.0042047119140625	1.05560302734375
434	1.0595703125	17.2001429565738	0.00426544189453125	1.05865478515625
435	1.06201171875	17.2245429565122	0.00432647705078125	1.0614013671875
436	1.064453125	17.2489429564506	0.00437957763671875	1.06414794921875
437	1.06689453125	17.273342956389	0.00443572998046875	1.06597900390625
438	1.0693359375	17.2977429563274	0.0044854736328125	1.06842041015625
439	1.07177734375	17.3221429562658	0.0045355224609375	1.07086181640625
440	1.07421875	17.3465429562042	0.0045806884765625	1.07269287109375
441	1.07666015625	17.3709429561426	0.00462432861328125	1.07574462890625
442	1.0791015625	17.395342956081	0.0046673583984375	1.07818603515625
443	1.08154296875	17.4197429560194	0.00470672607421875	1.08062744140625
444	1.083984375	17.4441429559578	0.00474639892578125	1.0833740234375
445	1.08642578125	17.4685429558962	0.0047808837890625	1.08551025390625
446	1.0888671875	17.4929429558346	0.004818115234375	1.087646484375
447	1.09130859375	17.517342955773	0.0048504638671875	1.090087890625
448	1.09375	17.5417429557114	0.00488433837890625	1.092529296875
449	1.09619140625	17.5661429556498	0.00491485595703125	1.094970703125
450	1.0986328125	17.5905429555881	0.004945068359375	1.0968017578125
451	1.10107421875	17.6149429555265	0.00497467041015625	1.09954833984375
452	1.103515625	17.6393429554649	0.00500213623046875	1.102294921875
453	1.10595703125	17.6637429554033	0.00503082275390625	1.10504150390625
454	1.1083984375	17.6881429553417	0.0050555419921875	1.107177734375
455	1.11083984375	17.7125429552801	0.0050830078125	1.10992431640625
456	1.11328125	17.7369429552185	0.0051068115234375	1.11175537109375
457	1.11572265625	17.7613429551569	0.00513214111328125	1.114501953125
458	1.1181640625	17.7857429550953	0.005155029296875	1.116943359375
459	1.12060546875	17.8101429550337	0.00517822265625	1.11968994140625
460	1.123046875	17.8345429549721	0.00520111083984375	1.12213134765625
461	1.12548828125	17.8589429549105	0.0052227783203125	1.124267578125
462	1.1279296875	17.8833429548489	0.00524505615234375	1.12701416015625
463	1.13037109375	17.9077429547873	0.00526458740234375	1.129150390625
464	1.1328125	17.9321429547257	0.00528656005859375	1.131591796875
465	1.13525390625	17.9565429546641	0.0053057861328125	1.13433837890625
466	1.1376953125	17.9809429546025	0.00532623291015625	1.136474609375
467	1.14013671875	18.0053429545409	0.0053448486328125	1.13983154296875
468	1.142578125	18.0297429544793	0.00536376953125	1.14105224609375
469	1.14501953125	18.0541429544177	0.0053826904296875	1.143798828125
470	1.1474609375	18.0785429543561	0.005400390625	1.146240234375
471	1.14990234375	18.1029429542945	0.00541900634765625	1.14898681640625
472	1.15234375	18.1273429542329	0.00543548583984375	1.15142822265625
473	1.15478515625	18.1517429541713	0.00545379638671875	1.15325927734375
474	1.1572265625	18.1761429541097	0.00546966552734375	1.156005859375
475	1.15966796875	18.200542954048	0.005487060546875	1.15814208984375
476	1.162109375	18.2249429539864	0.0055029296875	1.16119384765625
477	1.16455078125	18.2493429539248	0.00551910400390625	1.16363525390625
478	1.1669921875	18.2737429538632	0.0055352783203125	1.165771484375
479	1.16943359375	18.2981429538016	0.005550537109375	1.16851806640625
480	1.171875	18.32254295374	0.00556671142578125	1.17095947265625
481	1.17431640625	18.3469429536784	0.00558074951171875	1.1737060546875
482	1.1767578125	18.3713429536168	0.00559661865234375	1.1761474609375
483	1.17919921875	18.3957429535552	0.00561065673828125	1.17828369140625
484	1.181640625	18.4201429534936	0.00562591552734375	1.180419921875
485	1.18408203125	18.444542953432	0.0056396484375	1.18316650390625
486	1.1865234375	18.4689429533704	0.00565399169921875	1.185302734375
487	1.18896484375	18.4933429533088	0.00566802978515625	1.1883544921875
488	1.19140625	18.5177429532472	0.0056817626953125	1.19049072265625
489	1.19384765625	18.5421429531856	0.00569580078125	1.19293212890625
490	1.1962890625	18.566542953124	0.00570831298828125	1.195068359375
491	1.19873046875	18.5909429530624	0.00572265625	1.19781494140625
492	1.201171875	18.6153429530008	0.00573486328125	1.20025634765625
493	1.19873046875	18.6397429529392	0.0057196044921875	1.19781494140625
494	1.1962890625	18.6641429528776	0.0057025146484375	1.195068359375
495	1.19384765625	18.688542952816	0.00568634033203125	1.192626953125
496	1.19140625	18.7129429527544	0.00566986083984375	1.1907958984375
497	1.18896484375	18.7373429526928	0.0056524658203125	1.187744140625
498	1.1865234375	18.7617429526312	0.005635986328125	1.185302734375
499	1.18408203125	18.7861429525695	0.00561767578125	1.18316650390625
500	1.181640625	18.8105429525079	0.0056005859375	1.18072509765625
501	1.17919921875	18.8349429524463	0.00558197021484375	1.17828369140625
502	1.1767578125	18.8593429523847	0.00556427001953125	1.1749267578125
503	1.17431640625	18.8837429523231	0.0055450439453125	1.17340087890625
504	1.171875	18.9081429522615	0.005526123046875	1.1712646484375
505	1.16943359375	18.9325429521999	0.00550689697265625	1.16851806640625
506	1.1669921875	18.9569429521383	0.005487060546875	1.16607666015625
507	1.16455078125	18.9813429520767	0.005467529296875	1.1639404296875
508	1.162109375	19.0057429520151	0.0054461669921875	1.160888671875
509	1.15966796875	19.0301429519535	0.00542633056640625	1.15875244140625
510	1.1572265625	19.0545429518919	0.005404052734375	1.1566162109375
511	1.15478515625	19.0789429518303	0.00538299560546875	1.153564453125
512	1.15234375	19.1033429517687	0.005360107421875	1.151123046875
513	1.14990234375	19.1277429517071	0.0053375244140625	1.14898681640625
514	1.1474609375	19.1521429516455	0.0053143310546875	1.1468505859375
515	1.14501953125	19.1765429515839	0.0052899169921875	1.143798828125
516	1.142578125	19.2009429515223	0.00526580810546875	1.141357421875
517	1.14013671875	19.2253429514607	0.0052398681640625	1.138916015625
518	1.1376953125	19.2497429513991	0.00521484375	1.136474609375
519	1.13525390625	19.2741429513375	0.0051873779296875	1.134033203125
520	1.1328125	19.2985429512759	0.00516021728515625	1.13128662109375
521	1.13037109375	19.3229429512143	0.00513153076171875	1.12945556640625
522	1.1279296875	19.3473429511527	0.00510223388671875	1.126708984375
523	1.12548828125	19.3717429510911	0.005072021484375	1.124267578125
524	1.123046875	19.3961429510294	0.00504058837890625	1.121826171875
525	1.12060546875	19.4205429509678	0.005008544921875	1.11907958984375
526	1.1181640625	19.4449429509062	0.0049737548828125	1.11724853515625
527	1.11572265625	19.4693429508446	0.00493927001953125	1.1151123046875
528	1.11328125	19.493742950783	0.00490203857421875	1.11236572265625
529	1.11083984375	19.5181429507214	0.00486419677734375	1.1102294921875
530	1.1083984375	19.5425429506598	0.0048236083984375	1.1077880859375
531	1.10595703125	19.5669429505982	0.004781494140625	1.10504150390625
532	1.103515625	19.5913429505366	0.00473785400390625	1.10260009765625
533	1.10107421875	19.615742950475	0.004691162109375	1.09954833984375
534	1.0986328125	19.6401429504134	0.00464202880859375	1.09771728515625
535	1.09619140625	19.6645429503518	0.0045892333984375	1.09527587890625
536	1.09375	19.6889429502902	0.004534912109375	1.092529296875
537	1.09130859375	19.7133429502286	0.0044769287109375	1.09039306640625
538	1.0888671875	19.737742950167	0.00441497802734375	1.087646484375
539	1.08642578125	19.7621429501054	0.00434906005859375	1.0858154296875
540	1.083984375	19.7865429500438	0.0042791748046875	1.082763671875
541	1.08154296875	19.8109429499822	0.00420684814453125	1.0809326171875
542	1.0791015625	19.8353429499206	0.00412994384765625	1.07818603515625
543	1.07666015625	19.859742949859	0.004049072265625	1.07574462890625
544	1.07421875	19.8841429497974	0.0039654541015625	1.07330322265625
545	1.07177734375	19.9085429497358	0.0038787841796875	1.07086181640625
546	1.0693359375	19.9329429496742	0.0037933349609375	1.06781005859375
547	1.06689453125	19.9573429496126	0.00370147705078125	1.065673828125
548	1.064453125	19.9817429495509	0.0036126708984375	1.0638427734375
549	1.06201171875	20.0061429494893	0.0035211181640625	1.06109619140625
550	1.0595703125	20.0305429494277	0.0034320068359375	1.05865478515625
551	1.05712890625	20.0549429493661	0.00334228515625	1.055908203125
552	1.0546875	20.0793429493045	0.003250732421875	1.05377197265625
553	1.05224609375	20.1037429492429	0.0031640625	1.051025390625
554	1.0498046875	20.1281429491813	0.0030731201171875	1.04888916015625
555	1.04736328125	20.1525429491197	0.00299072265625	1.04644775390625
556	1.044921875	20.1769429490581	0.0028997802734375	1.0443115234375
557	1.04248046875	20.2013429489965	0.002818603515625	1.04156494140625
558	1.0400390625	20.2257429489349	0.0027325439453125	1.03912353515625
559	1.03759765625	20.2501429488733	0.0026513671875	1.036376953125
560	1.03515625	20.2745429488117	0.00257080078125	1.033935546875
561	1.03271484375	20.2989429487501	0.0024859619140625	1.0321044921875
562	1.0302734375	20.3233429486885	0.00241180419921875	1.0296630859375
563	1.02783203125	20.3477429486269	0.002327880859375	1.0272216796875
564	1.025390625	20.3721429485653	0.0022589111328125	1.02447509765625
565	1.02294921875	20.3965429485037	0.0021746826171875	1.02203369140625
566	1.0205078125	20.4209429484421	0.00210601806640625	1.02020263671875
567	1.01806640625	20.4453429483805	0.00202911376953125	1.01715087890625
568	1.015625	20.4697429483189	0.0019586181640625	1.0150146484375
569	1.01318359375	20.4941429482573	0.00188873291015625	1.01287841796875
570	1.0107421875	20.5185429481957	0.0018133544921875	1.0089111328125
571	1.00830078125	20.5429429481341	0.00175201416015625	1.007080078125
572	1.005859375	20.5673429480725	0.0016754150390625	1.00494384765625
573	1.00341796875	20.5917429480108	0.0016204833984375	1.00189208984375
574	1.0009765625	20.6161429479492	0.00154327392578125	1.00006103515625
575	0.99853515625	20.6405429478876	0.001488037109375	0.997314453125
576	0.99609375	20.664942947826	0.001419677734375	0.994873046875
577	0.99365234375	20.6893429477644	0.00135986328125	0.99273681640625
578	0.9912109375	20.7137429477028	0.0013006591796875	0.9906005859375
579	0.98876953125	20.7381429476412	0.00123321533203125	0.987548828125
580	0.986328125	20.7625429475796	0.0011846923828125	0.98541259765625
581	0.98388671875	20.786942947518	0.00111480712890625	0.9832763671875
582	0.9814453125	20.8113429474564	0.0010736083984375	0.9808349609375
583	0.97900390625	20.8357429473948	0.001002197265625	0.97869873046875
584	0.9765625	20.8601429473332	0.00095977783203125	0.975341796875
585	0.97412109375	20.8845429472716	0.0008990478515625	0.97320556640625
586	0.9716796875	20.90894294721	0.00084991455078125	0.9710693359375
587	0.96923828125	20.9333429471484	0.00079986572265625	0.9686279296875
588	0.966796875	20.9577429470868	0.00073974609375	0.96588134765625
589	0.96435546875	20.9821429470252	0.0007037353515625	0.96343994140625
590	0.9619140625	21.0065429469636	0.0006396484375	0.96038818359375
591	0.95947265625	21.030942946902	0.0006109619140625	0.9588623046875
592	0.95703125	21.0553429468404	0.0005450439453125	0.95703125
593	0.95458984375	21.0797429467788	0.00051483154296875	0.95367431640625
594	0.9521484375	21.1041429467172	0.000460540771484375	0.950927734375
595	0.94970703125	21.1285429466556	0.000420654296875	0.9490966796875
596	0.947265625	21.152942946594	0.0003790283203125	0.9466552734375
597	0.94482421875	21.1773429465323	0.0003260498046875	0.9442138671875
598	0.9423828125	21.2017429464707	0.000300994873046875	0.941162109375
599	0.93994140625	21.2261429464091	0.000242034912109375	0.93902587890625
600	0.9375	21.2505429463475	0.000225311279296875	0.936279296875
601	0.93505859375	21.2749429462859	0.00016253662109375	0.933837890625
602	0.9326171875	21.2993429462243	0.000143798828125	0.93170166015625
603	0.93017578125	21.3237429461627	9.5550537109375E-05	0.92926025390625
604	0.927734375	21.3481429461011	6.4422607421875E-05	0.926513671875
605	0.92529296875	21.3725429460395	2.99072265625E-05	0.9246826171875
606	0.9228515625	21.3969429459779	-1.74774169921875E-05	0.92193603515625
607	0.92041015625	21.4213429459163	-3.289794921875E-05	0.91949462890625
608	0.91796875	21.4457429458547	-8.770751953125E-05	0.91705322265625
609	0.91552734375	21.4701429457931	-9.405517578125E-05	0.91400146484375
610	0.9130859375	21.4945429457315	-0.000153961181640625	0.911865234375
611	0.91064453125	21.5189429456699	-0.00016143798828125	0.9100341796875
612	0.908203125	21.5433429456083	-0.0002060546875	0.90728759765625
613	0.90576171875	21.5677429455467	-0.00022796630859375	0.904541015625
614	0.9033203125	21.5921429454851	-0.0002579345703125	0.90240478515625
615	0.90087890625	21.6165429454235	-0.000298492431640625	0.89996337890625
616	0.8984375	21.6409429453619	-0.000306396484375	0.897216796875
617	0.89599609375	21.6653429453003	-0.000357269287109375	0.894775390625
618	0.8935546875	21.6897429452387	-0.000354644775390625	0.89263916015625
619	0.89111328125	21.7141429451771	-0.000411895751953125	0.8905029296875
620	0.888671875	21.7385429451155	-0.000410797119140625	0.887451171875
621	0.88623046875	21.7629429450539	-0.000451629638671875	0.8856201171875
622	0.8837890625	21.7873429449922	-0.000467254638671875	0.8831787109375
623	0.88134765625	21.8117429449306	-0.00049163818359375	0.8807373046875
624	0.87890625	21.836142944869	-0.0005279541015625	0.877685546875
625	0.87646484375	21.8605429448074	-0.0005291748046875	0.87615966796875
626	0.8740234375	21.8849429447458	-0.00057708740234375	0.87310791015625
627	0.87158203125	21.9093429446842	-0.00056732177734375	0.8709716796875
628	0.869140625	21.9337429446226	-0.0006231689453125	0.86761474609375
629	0.86669921875	21.958142944561	-0.00061370849609375	0.86578369140625
630	0.8642578125	21.9825429444994	-0.000653076171875	0.8624267578125
631	0.86181640625	22.0069429444378	-0.00066253662109375	0.86090087890625
632	0.859375	22.0313429443762	-0.00068511962890625	0.858154296875
633	0.85693359375	22.0557429443146	-0.0007171630859375	0.8563232421875
634	0.8544921875	22.080142944253	-0.00071319580078125	0.85418701171875
635	0.85205078125	22.1045429441914	-0.0007586669921875	0.85113525390625
636	0.849609375	22.1289429441298	-0.0007427978515625	0.8489990234375
637	0.84716796875	22.1533429440682	-0.00079803466796875	0.8465576171875
638	0.8447265625	22.1777429440066	-0.00078216552734375	0.8441162109375
639	0.84228515625	22.202142943945	-0.0008203125	0.8416748046875
640	0.83984375	22.2265429438834	-0.0008233642578125	0.838623046875
641	0.83740234375	22.2509429438218	-0.00084381103515625	0.83648681640625
642	0.8349609375	22.2753429437602	-0.00087158203125	0.83465576171875
643	0.83251953125	22.2997429436986	-0.00086395263671875	0.83221435546875
644	0.830078125	22.324142943637	-0.00090667724609375	0.82916259765625
645	0.82763671875	22.3485429435754	-0.00088653564453125	0.8270263671875
646	0.8251953125	22.3729429435137	-0.0009405517578125	0.8245849609375
647	0.82275390625	22.3973429434521	-0.00091888427734375	0.8221435546875
648	0.8203125	22.4217429433905	-0.000955810546875	0.8197021484375
649	0.81787109375	22.4461429433289	-0.00095367431640625	0.816650390625
650	0.8154296875	22.4705429432673	-0.00097259521484375	0.81451416015625
651	0.81298828125	22.4949429432057	-0.00099700927734375	0.81268310546875
652	0.810546875	22.5193429431441	-0.0009869384765625	0.809326171875
653	0.80810546875	22.5437429430825	-0.0010272216796875	0.806884765625
654	0.8056640625	22.5681429430209	-0.00100372314453125	0.804443359375
655	0.80322265625	22.5925429429593	-0.0010565185546875	0.80291748046875
656	0.80078125	22.6169429428977	-0.0010296630859375	0.799560546875
657	0.79833984375	22.6413429428361	-0.001065673828125	0.79742431640625
658	0.7958984375	22.6657429427745	-0.00105926513671875	0.79498291015625
659	0.79345703125	22.6901429427129	-0.0010784912109375	0.79254150390625
660	0.791015625	22.7145429426513	-0.00109954833984375	0.789794921875
661	0.78857421875	22.7389429425897	-0.00108795166015625	0.787353515625
662	0.7861328125	22.7633429425281	-0.0011260986328125	0.78582763671875
663	0.78369140625	22.7877429424665	-0.00110015869140625	0.7830810546875
664	0.78125	22.8121429424049	-0.00115264892578125	0.7806396484375
665	0.77880859375	22.8365429423433	-0.00112274169921875	0.77850341796875
666	0.7763671875	22.8609429422817	-0.0011602783203125	0.7757568359375
667	0.77392578125	22.8853429422201	-0.00115020751953125	0.772705078125
668	0.771484375	22.9097429421585	-0.00117034912109375	0.77117919921875
669	0.76904296875	22.9341429420969	-0.00118896484375	0.76873779296875
670	0.7666015625	22.9585429420353	-0.0011767578125	0.76568603515625
671	0.76416015625	22.9829429419736	-0.0012139892578125	0.7635498046875
672	0.76171875	23.007342941912	-0.00118621826171875	0.76080322265625
673	0.75927734375	23.0317429418504	-0.00123870849609375	0.7586669921875
674	0.7568359375	23.0561429417888	-0.00120513916015625	0.755615234375
675	0.75439453125	23.0805429417272	-0.00124298095703125	0.75408935546875
676	0.751953125	23.1049429416656	-0.00122894287109375	0.75164794921875
677	0.74951171875	23.129342941604	-0.00124847412109375	0.74945068359375
678	0.7470703125	23.1537429415424	-0.0012646484375	0.747100830078125
679	0.74462890625	23.1781429414808	-0.0012506103515625	0.74462890625
680	0.7421875	23.2025429414192	-0.00128570556640625	0.74224853515625
681	0.73974609375	23.2269429413576	-0.0012548828125	0.73968505859375
682	0.7373046875	23.251342941296	-0.00130584716796875	0.737274169921875
683	0.73486328125	23.2757429412344	-0.00126922607421875	0.734832763671875
684	0.732421875	23.3001429411728	-0.00130523681640625	0.732421875
685	0.72998046875	23.3245429411112	-0.0012884521484375	0.72998046875
686	0.7275390625	23.3489429410496	-0.00130767822265625	0.7275390625
687	0.72509765625	23.373342940988	-0.0013201904296875	0.725128173828125
688	0.72265625	23.3977429409264	-0.00130615234375	0.72265625
689	0.72021484375	23.4221429408648	-0.001339111328125	0.72027587890625
690	0.7177734375	23.4465429408032	-0.00130828857421875	0.7177734375
691	0.71533203125	23.4709429407416	-0.001358642578125	0.715423583984375
692	0.712890625	23.49534294068	-0.00132049560546875	0.712860107421875
693	0.71044921875	23.5197429406184	-0.00135772705078125	0.710418701171875
694	0.7080078125	23.5441429405568	-0.0013385009765625	0.708038330078125
695	0.70556640625	23.5685429404951	-0.00135955810546875	0.705535888671875
696	0.703125	23.5929429404335	-0.00136993408203125	0.70318603515625
697	0.70068359375	23.6173429403719	-0.00135711669921875	0.700714111328125
698	0.6982421875	23.6417429403103	-0.00139007568359375	0.69830322265625
699	0.69580078125	23.6661429402487	-0.0013592529296875	0.695831298828125
700	0.693359375	23.6905429401871	-0.00141021728515625	0.693389892578125
701	0.69091796875	23.7149429401255	-0.00137115478515625	0.6910400390625
702	0.6884765625	23.7393429400639	-0.00140960693359375	0.6884765625
703	0.68603515625	23.7637429400023	-0.00138824462890625	0.686126708984375
704	0.68359375	23.7881429399407	-0.0014111328125	0.683624267578125
705	0.68115234375	23.8125429398791	-0.001419677734375	0.681182861328125
706	0.6787109375	23.8369429398175	-0.00140777587890625	0.678741455078125
707	0.67626953125	23.8613429397559	-0.00143890380859375	0.676361083984375
708	0.673828125	23.8857429396943	-0.0014080810546875	0.67388916015625
709	0.67138671875	23.9101429396327	-0.00145782470703125	0.6715087890625
710	0.6689453125	23.9345429395711	-0.0014166259765625	0.669036865234375
711	0.66650390625	23.9589429395095	-0.0014556884765625	0.666534423828125
712	0.6640625	23.9833429394479	-0.0014306640625	0.664154052734375
713	0.66162109375	24.0077429393863	-0.001453857421875	0.661712646484375
714	0.6591796875	24.0321429393247	-0.0014593505859375	0.6593017578125
715	0.65673828125	24.0565429392631	-0.0014471435546875	0.65679931640625
716	0.654296875	24.0809429392015	-0.00147552490234375	0.6544189453125
717	0.65185546875	24.1053429391399	-0.001444091796875	0.651947021484375
718	0.6494140625	24.1297429390783	-0.0014923095703125	0.6495361328125
719	0.64697265625	24.1541429390167	-0.0014495849609375	0.647064208984375
720	0.64453125	24.178542938955	-0.00148834228515625	0.64459228515625
721	0.64208984375	24.2029429388934	-0.00146087646484375	0.642181396484375
722	0.6396484375	24.2273429388318	-0.0014849853515625	0.63970947265625
723	0.63720703125	24.2517429387702	-0.00148834228515625	0.6373291015625
724	0.634765625	24.2761429387086	-0.0014764404296875	0.634918212890625
725	0.63232421875	24.300542938647	-0.0015032958984375	0.632476806640625
726	0.6298828125	24.3249429385854	-0.00147216796875	0.6300048828125
727	0.62744140625	24.3493429385238	-0.00152008056640625	0.627655029296875
728	0.625	24.3737429384622	-0.001475830078125	0.625091552734375
729	0.62255859375	24.3981429384006	-0.00151580810546875	0.6226806640625
730	0.6201171875	24.422542938339	-0.00148651123046875	0.6202392578125
731	0.61767578125	24.4469429382774	-0.00151214599609375	0.617767333984375
732	0.615234375	24.4713429382158	-0.001513671875	0.615386962890625
733	0.61279296875	24.4957429381542	-0.0015032958984375	0.61285400390625
734	0.6103515625	24.5201429380926	-0.0015289306640625	0.610504150390625
735	0.60791015625	24.544542938031	-0.00149810791015625	0.6080322265625
736	0.60546875	24.5689429379694	-0.0015460205078125	0.60565185546875
737	0.60302734375	24.5933429379078	-0.00150115966796875	0.603118896484375
738	0.6005859375	24.6177429378462	-0.0015411376953125	0.6007080078125
739	0.59814453125	24.6421429377846	-0.0015106201171875	0.59820556640625
740	0.595703125	24.666542937723	-0.00153717041015625	0.595794677734375
741	0.59326171875	24.6909429376614	-0.0015362548828125	0.593414306640625
742	0.5908203125	24.7153429375998	-0.00152679443359375	0.590972900390625
743	0.58837890625	24.7397429375382	-0.00155059814453125	0.588531494140625
744	0.5859375	24.7641429374765	-0.00152069091796875	0.586090087890625
745	0.58349609375	24.7885429374149	-0.0015673828125	0.5836181640625
746	0.5810546875	24.8129429373533	-0.001522216796875	0.58111572265625
747	0.57861328125	24.8373429372917	-0.0015625	0.5787353515625
748	0.576171875	24.8617429372301	-0.00152984619140625	0.576324462890625
749	0.57373046875	24.8861429371685	-0.00155792236328125	0.57379150390625
750	0.5712890625	24.9105429371069	-0.00155517578125	0.5714111328125
751	0.56884765625	24.9349429370453	-0.001546630859375	0.56890869140625
752	0.56640625	24.9593429369837	-0.00156890869140625	0.56658935546875
753	0.56396484375	24.9837429369221	-0.00153961181640625	0.5640869140625
754	0.5615234375	25.0081429368605	-0.00158538818359375	0.561798095703125
755	0.55908203125	25.0325429367989	-0.0015399169921875	0.5592041015625
756	0.556640625	25.0569429367373	-0.0015802001953125	0.55682373046875
757	0.55419921875	25.0813429366757	-0.00154571533203125	0.554351806640625
758	0.5517578125	25.1057429366141	-0.00157440185546875	0.551910400390625
759	0.54931640625	25.1301429365525	-0.00156951904296875	0.549530029296875
760	0.546875	25.1545429364909	-0.00156219482421875	0.5469970703125
761	0.54443359375	25.1789429364293	-0.00158294677734375	0.544586181640625
762	0.5419921875	25.2033429363677	-0.001553955078125	0.542083740234375
763	0.53955078125	25.2277429363061	-0.00159912109375	0.539764404296875
764	0.537109375	25.2521429362445	-0.0015533447265625	0.537261962890625
765	0.53466796875	25.2765429361829	-0.00159515380859375	0.53485107421875
766	0.5322265625	25.3009429361213	-0.001558837890625	0.532379150390625
767	0.52978515625	25.3253429360597	-0.00158935546875	0.529937744140625
768	0.52734375	25.3497429359981	-0.00158294677734375	0.527557373046875
769	0.52490234375	25.3741429359364	-0.00157684326171875	0.5250244140625
770	0.5224609375	25.3985429358748	-0.0015966796875	0.52264404296875
771	0.52001953125	25.4229429358132	-0.001568603515625	0.5201416015625
772	0.517578125	25.4473429357516	-0.0016131591796875	0.517730712890625
773	0.51513671875	25.47174293569	-0.0015667724609375	0.51531982421875
774	0.5126953125	25.4961429356284	-0.0016082763671875	0.51287841796875
775	0.51025390625	25.5205429355668	-0.00157073974609375	0.510406494140625
776	0.5078125	25.5449429355052	-0.0016021728515625	0.50799560546875
777	0.50537109375	25.5693429354436	-0.0015936279296875	0.505523681640625
778	0.5029296875	25.593742935382	-0.00158905029296875	0.503143310546875
779	0.50048828125	25.6181429353204	-0.0016070556640625	0.50067138671875
780	0.498046875	25.6425429352588	-0.00157989501953125	0.498199462890625
781	0.49560546875	25.6669429351972	-0.00162353515625	0.495819091796875
782	0.4931640625	25.6913429351356	-0.00157684326171875	0.4932861328125
783	0.49072265625	25.715742935074	-0.00161834716796875	0.490936279296875
784	0.48828125	25.7401429350124	-0.00157928466796875	0.488433837890625
785	0.48583984375	25.7645429349508	-0.001611328125	0.48602294921875
786	0.4833984375	25.7889429348892	-0.00160064697265625	0.483551025390625
787	0.48095703125	25.8133429348276	-0.0015972900390625	0.4810791015625
788	0.478515625	25.837742934766	-0.00161376953125	0.478729248046875
789	0.47607421875	25.8621429347044	-0.0015875244140625	0.47625732421875
790	0.4736328125	25.8865429346428	-0.00162994384765625	0.473846435546875
791	0.47119140625	25.9109429345812	-0.0015838623046875	0.471343994140625
792	0.46875	25.9353429345196	-0.0016259765625	0.46893310546875
793	0.46630859375	25.9597429344579	-0.00158599853515625	0.466461181640625
794	0.4638671875	25.9841429343963	-0.00161956787109375	0.464019775390625
795	0.46142578125	26.0085429343347	-0.00160675048828125	0.461578369140625
796	0.458984375	26.0329429342731	-0.0016046142578125	0.459197998046875
797	0.45654296875	26.0573429342115	-0.001619873046875	0.456787109375
798	0.4541015625	26.0817429341499	-0.00159454345703125	0.45428466796875
799	0.45166015625	26.1061429340883	-0.00163665771484375	0.451934814453125
800	0.44921875	26.1305429340267	-0.00159027099609375	0.449371337890625
801	0.44677734375	26.1549429339651	-0.0016326904296875	0.446990966796875
802	0.4443359375	26.1793429339035	-0.001591796875	0.444549560546875
803	0.44189453125	26.2037429338419	-0.0016265869140625	0.442108154296875
804	0.439453125	26.2281429337803	-0.00161285400390625	0.43963623046875
805	0.43701171875	26.2525429337187	-0.00161224365234375	0.43719482421875
806	0.4345703125	26.2769429336571	-0.00162628173828125	0.434783935546875
807	0.43212890625	26.3013429335955	-0.001602783203125	0.43231201171875
808	0.4296875	26.3257429335339	-0.0016436767578125	0.429931640625
809	0.42724609375	26.3501429334723	-0.00159820556640625	0.427459716796875
810	0.4248046875	26.3745429334107	-0.0016412353515625	0.425079345703125
811	0.42236328125	26.3989429333491	-0.00159942626953125	0.42254638671875
812	0.419921875	26.4233429332875	-0.00163604736328125	0.42010498046875
813	0.41748046875	26.4477429332259	-0.0016204833984375	0.417694091796875
814	0.4150390625	26.4721429331643	-0.00162139892578125	0.415252685546875
815	0.41259765625	26.4965429331027	-0.0016339111328125	0.412811279296875
816	0.41015625	26.5209429330411	-0.00161102294921875	0.410308837890625
817	0.40771484375	26.5453429329795	-0.00165069580078125	0.40789794921875
818	0.4052734375	26.5697429329178	-0.00160430908203125	0.40545654296875
819	0.40283203125	26.5941429328562	-0.001646728515625	0.403106689453125
820	0.400390625	26.6185429327946	-0.00160308837890625	0.400543212890625
821	0.39794921875	26.642942932733	-0.00163909912109375	0.39813232421875
822	0.3955078125	26.6673429326714	-0.00162109375	0.395751953125
823	0.39306640625	26.6917429326098	-0.00162200927734375	0.393280029296875
824	0.390625	26.7161429325482	-0.00163238525390625	0.390869140625
825	0.38818359375	26.7405429324866	-0.00161102294921875	0.388427734375
826	0.3857421875	26.764942932425	-0.00164947509765625	0.385986328125
827	0.38330078125	26.7893429323634	-0.00160400390625	0.38348388671875
828	0.380859375	26.8137429323018	-0.001646728515625	0.381103515625
829	0.37841796875	26.8381429322402	-0.00160308837890625	0.378631591796875
830	0.3759765625	26.8625429321786	-0.0016412353515625	0.37615966796875
831	0.37353515625	26.886942932117	-0.001622314453125	0.373687744140625
832	0.37109375	26.9113429320554	-0.0016253662109375	0.371307373046875
833	0.36865234375	26.9357429319938	-0.00163543701171875	0.368865966796875
834	0.3662109375	26.9601429319322	-0.00161529541015625	0.36639404296875
835	0.36376953125	26.9845429318706	-0.00165374755859375	0.364044189453125
836	0.361328125	27.008942931809	-0.0016094970703125	0.36151123046875
837	0.35888671875	27.0333429317474	-0.00165283203125	0.359130859375
838	0.3564453125	27.0577429316858	-0.0016094970703125	0.356689453125
839	0.35400390625	27.0821429316242	-0.001649169921875	0.354217529296875
840	0.3515625	27.1065429315626	-0.0016290283203125	0.351806640625
841	0.34912109375	27.130942931501	-0.001634521484375	0.349334716796875
842	0.3466796875	27.1553429314393	-0.00164337158203125	0.346893310546875
843	0.34423828125	27.1797429313777	-0.00162506103515625	0.34442138671875
844	0.341796875	27.2041429313161	-0.00166259765625	0.342010498046875
845	0.33935546875	27.2285429312545	-0.00161865234375	0.339569091796875
846	0.3369140625	27.2529429311929	-0.00166229248046875	0.337158203125
847	0.33447265625	27.2773429311313	-0.001617431640625	0.334625244140625
848	0.33203125	27.3017429310697	-0.00165863037109375	0.33221435546875
849	0.32958984375	27.3261429310081	-0.0016357421875	0.329742431640625
850	0.3271484375	27.3505429309465	-0.0016424560546875	0.327362060546875
851	0.32470703125	27.3749429308849	-0.001649169921875	0.324920654296875
852	0.322265625	27.3993429308233	-0.001632080078125	0.322418212890625
853	0.31982421875	27.4237429307617	-0.0016680908203125	0.320068359375
854	0.3173828125	27.4481429307001	-0.00162384033203125	0.317535400390625
855	0.31494140625	27.4725429306385	-0.00166656494140625	0.315185546875
856	0.3125	27.4969429305769	-0.00162078857421875	0.312713623046875
857	0.31005859375	27.5213429305153	-0.0016619873046875	0.310211181640625
858	0.3076171875	27.5457429304537	-0.00163726806640625	0.307830810546875
859	0.30517578125	27.5701429303921	-0.0016455078125	0.305389404296875
860	0.302734375	27.5945429303305	-0.00165069580078125	0.302947998046875
861	0.30029296875	27.6189429302689	-0.001634521484375	0.300506591796875
862	0.2978515625	27.6433429302073	-0.0016693115234375	0.298095703125
863	0.29541015625	27.6677429301457	-0.00162628173828125	0.29559326171875
864	0.29296875	27.6921429300841	-0.0016693115234375	0.293304443359375
865	0.29052734375	27.7165429300225	-0.00162322998046875	0.290771484375
866	0.2880859375	27.7409429299609	-0.00166534423828125	0.288299560546875
867	0.28564453125	27.7653429298992	-0.00163909912109375	0.285858154296875
868	0.283203125	27.7897429298376	-0.0016485595703125	0.283355712890625
869	0.28076171875	27.814142929776	-0.00165252685546875	0.28106689453125
870	0.2783203125	27.8385429297144	-0.00163726806640625	0.27850341796875
871	0.27587890625	27.8629429296528	-0.001671142578125	0.276153564453125
872	0.2734375	27.8873429295912	-0.00162841796875	0.27362060546875
873	0.27099609375	27.9117429295296	-0.0016717529296875	0.27130126953125
874	0.2685546875	27.936142929468	-0.0016253662109375	0.268768310546875
875	0.26611328125	27.9605429294064	-0.001668701171875	0.26629638671875
876	0.263671875	27.9849429293448	-0.0016412353515625	0.263885498046875
877	0.26123046875	28.0093429292832	-0.0016522216796875	0.261444091796875
878	0.2587890625	28.0337429292216	-0.00165496826171875	0.259033203125
879	0.25634765625	28.05814292916	-0.00164154052734375	0.25653076171875
880	0.25390625	28.0825429290984	-0.00167449951171875	0.25421142578125
881	0.25146484375	28.1069429290368	-0.0016326904296875	0.251708984375
882	0.2490234375	28.1313429289752	-0.00167572021484375	0.249359130859375
883	0.24658203125	28.1557429289136	-0.00162872314453125	0.246826171875
884	0.244140625	28.180142928852	-0.0016729736328125	0.244354248046875
885	0.24169921875	28.2045429287904	-0.0016436767578125	0.24200439453125
886	0.2392578125	28.2289429287288	-0.0016558837890625	0.239471435546875
887	0.23681640625	28.2533429286672	-0.00165679931640625	0.237030029296875
888	0.234375	28.2777429286056	-0.0016448974609375	0.23455810546875
889	0.23193359375	28.302142928544	-0.00167633056640625	0.232208251953125
890	0.2294921875	28.3265429284824	-0.00163482666015625	0.229705810546875
891	0.22705078125	28.3509429284207	-0.00167755126953125	0.22735595703125
892	0.224609375	28.3753429283591	-0.00163055419921875	0.22479248046875
893	0.22216796875	28.3997429282975	-0.00167510986328125	0.222412109375
894	0.2197265625	28.4241429282359	-0.00164398193359375	0.219940185546875
895	0.21728515625	28.4485429281743	-0.00165802001953125	0.217437744140625
896	0.21484375	28.4729429281127	-0.00165771484375	0.21502685546875
897	0.21240234375	28.4973429280511	-0.00164703369140625	0.21258544921875
898	0.2099609375	28.5217429279895	-0.00167755126953125	0.210235595703125
899	0.20751953125	28.5461429279279	-0.001636962890625	0.207733154296875
900	0.205078125	28.5705429278663	-0.0016790771484375	0.20538330078125
901	0.20263671875	28.5949429278047	-0.001632080078125	0.20281982421875
902	0.2001953125	28.6193429277431	-0.00167724609375	0.200439453125
903	0.19775390625	28.6437429276815	-0.0016448974609375	0.197998046875
904	0.1953125	28.6681429276199	-0.00166046142578125	0.19549560546875
905	0.19287109375	28.6925429275583	-0.00165863037109375	0.193115234375
906	0.1904296875	28.7169429274967	-0.001649169921875	0.19061279296875
907	0.18798828125	28.7413429274351	-0.00167877197265625	0.188232421875
908	0.185546875	28.7657429273735	-0.00163909912109375	0.18572998046875
909	0.18310546875	28.7901429273119	-0.00168121337890625	0.1834716796875
910	0.1806640625	28.8145429272503	-0.001634521484375	0.180877685546875
911	0.17822265625	28.8389429271887	-0.00168121337890625	0.178497314453125
912	0.17578125	28.8633429271271	-0.00164825439453125	0.176025390625
913	0.17333984375	28.8877429270655	-0.00166473388671875	0.17352294921875
914	0.1708984375	28.9121429270039	-0.00166168212890625	0.171173095703125
915	0.16845703125	28.9365429269423	-0.001654052734375	0.168670654296875
916	0.166015625	28.9609429268806	-0.00168182373046875	0.166290283203125
917	0.16357421875	28.985342926819	-0.00164337158203125	0.163787841796875
918	0.1611328125	29.0097429267574	-0.0016845703125	0.1614990234375
919	0.15869140625	29.0341429266958	-0.001636962890625	0.158905029296875
920	0.15625	29.0585429266342	-0.00168304443359375	0.156494140625
921	0.15380859375	29.0829429265726	-0.00164764404296875	0.154052734375
922	0.1513671875	29.107342926511	-0.0016650390625	0.151611328125
923	0.14892578125	29.1317429264494	-0.00166015625	0.149200439453125
924	0.146484375	29.1561429263878	-0.0016534423828125	0.146697998046875
925	0.14404296875	29.1805429263262	-0.00167999267578125	0.14434814453125
926	0.1416015625	29.2049429262646	-0.00164215087890625	0.141845703125
927	0.13916015625	29.229342926203	-0.0016827392578125	0.139495849609375
928	0.13671875	29.2537429261414	-0.00163543701171875	0.136993408203125
929	0.13427734375	29.2781429260798	-0.00168182373046875	0.134613037109375
930	0.1318359375	29.3025429260182	-0.00164520263671875	0.132049560546875
931	0.12939453125	29.3269429259566	-0.001663818359375	0.129608154296875
932	0.126953125	29.351342925895	-0.00165740966796875	0.127227783203125
933	0.12451171875	29.3757429258334	-0.00165283203125	0.124786376953125
934	0.1220703125	29.4001429257718	-0.00167877197265625	0.122406005859375
935	0.11962890625	29.4245429257102	-0.00164215087890625	0.119842529296875
936	0.1171875	29.4489429256486	-0.0016827392578125	0.117523193359375
937	0.11474609375	29.473342925587	-0.0016363525390625	0.115020751953125
938	0.1123046875	29.4977429255254	-0.0016845703125	0.11260986328125
939	0.10986328125	29.5221429254638	-0.0016473388671875	0.110076904296875
940	0.107421875	29.5465429254022	-0.001668701171875	0.107574462890625
941	0.10498046875	29.5709429253405	-0.001661376953125	0.10528564453125
942	0.1025390625	29.5953429252789	-0.00165863037109375	0.102813720703125
943	0.10009765625	29.6197429252173	-0.001683349609375	0.100372314453125
944	0.09765625	29.6441429251557	-0.00164794921875	0.097869873046875
945	0.09521484375	29.6685429250941	-0.00168853759765625	0.095550537109375
946	0.0927734375	29.6929429250325	-0.00164215087890625	0.093048095703125
947	0.09033203125	29.7173429249709	-0.001690673828125	0.09063720703125
948	0.087890625	29.7417429249093	-0.0016522216796875	0.088134765625
949	0.08544921875	29.7661429248477	-0.0016741943359375	0.08563232421875
950	0.0830078125	29.7905429247861	-0.0016650390625	0.083251953125
951	0.08056640625	29.8149429247245	-0.00166259765625	0.080780029296875
952	0.078125	29.8393429246629	-0.00168548583984375	0.078460693359375
953	0.07568359375	29.8637429246013	-0.00165008544921875	0.075897216796875
954	0.0732421875	29.8881429245397	-0.001689453125	0.073516845703125
955	0.07080078125	29.9125429244781	-0.00164276123046875	0.071044921875
956	0.068359375	29.9369429244165	-0.00169097900390625	0.06866455078125
957	0.06591796875	29.9613429243549	-0.00165069580078125	0.066131591796875
958	0.0634765625	29.9857429242933	-0.00167327880859375	0.06365966796875
959	0.06103515625	30.0101429242317	-0.00166259765625	0.061279296875
960	0.05859375	30.0345429241701	-0.0016619873046875	0.058837890625
961	0.05615234375	30.0589429241085	-0.001683349609375	0.056427001953125
962	0.0537109375	30.0833429240469	-0.00164947509765625	0.053955078125
963	0.05126953125	30.1077429239853	-0.001688232421875	0.051605224609375
964	0.048828125	30.1321429239237	-0.0016424560546875	0.0489837646484375
965	0.04638671875	30.156542923862	-0.00169189453125	0.04661865234375
966	0.0439453125	30.1809429238004	-0.00165008544921875	0.0441070556640625
967	0.04150390625	30.2053429237388	-0.00167572021484375	0.041644287109375
968	0.0390625	30.2297429236772	-0.00166290283203125	0.0392425537109375
969	0.03662109375	30.2541429236156	-0.00166595458984375	0.0367767333984375
970	0.0341796875	30.278542923554	-0.001685791015625	0.034375
971	0.03173828125	30.3029429234924	-0.00165435791015625	0.0318817138671875
972	0.029296875	30.3273429234308	-0.0016925048828125	0.029498291015625
973	0.02685546875	30.3517429233692	-0.00164764404296875	0.0270050048828125
974	0.0244140625	30.3761429233076	-0.0016986083984375	0.0246490478515625
975	0.02197265625	30.400542923246	-0.0016558837890625	0.022119140625
976	0.01953125	30.4249429231844	-0.0016839599609375	0.01966552734375
977	0.01708984375	30.4493429231228	-0.0016693115234375	0.017266845703125
978	0.0146484375	30.4737429230612	-0.0016741943359375	0.0148101806640625
979	0.01220703125	30.4981429229996	-0.00169219970703125	0.0124053955078125
980	0.009765625	30.522542922938	-0.00166168212890625	0.00990905761718749
981	0.00732421875	30.5469429228764	-0.001697998046875	0.007550048828125
982	0.0048828125	30.5713429228148	-0.00165283203125	0.0050384521484375
983	0.00244140625	30.5957429227532	-0.0017034912109375	0.00267944335937501
984	0	30.6201429226916	-0.00165924072265625	0.000134277343750003
985	0.00244140625	30.64454292263	-0.00168670654296875	0.00257263183593751
986	0.0048828125	30.6689429225684	-0.00166900634765625	0.00506591796875
