Index	Potential applied (V)	Time (s)	WE(1).Current (A)	WE(1).Potential (V)
1	0.00244140625	252.170486363331	-0.000376190185546875	0.0026214599609375
2	0.0048828125	252.194886363269	-0.000374114990234375	0.0050506591796875
3	0.00732421875	252.219286363208	-0.000372589111328125	0.0074737548828125
4	0.009765625	252.243686363146	-0.0003760986328125	0.00992736816406251
5	0.01220703125	252.268086363084	-0.00036932373046875	0.0123565673828125
6	0.0146484375	252.292486363023	-0.00037841796875	0.0148345947265625
7	0.01708984375	252.316886362961	-0.000369049072265625	0.0172454833984375
8	0.01953125	252.341286362899	-0.000374664306640625	0.0197021484375
9	0.02197265625	252.365686362838	-0.000370635986328125	0.022149658203125
10	0.0244140625	252.390086362776	-0.000371917724609375	0.02459716796875
11	0.02685546875	252.414486362715	-0.000375244140625	0.0270233154296875
12	0.029296875	252.438886362653	-0.00036883544921875	0.029461669921875
13	0.03173828125	252.463286362591	-0.000375762939453125	0.0319122314453125
14	0.0341796875	252.48768636253	-0.000366363525390625	0.034320068359375
15	0.03662109375	252.512086362468	-0.0003746337890625	0.036761474609375
16	0.0390625	252.536486362407	-0.000369537353515625	0.0392181396484375
17	0.04150390625	252.560886362345	-0.00037060546875	0.0416595458984375
18	0.0439453125	252.585286362283	-0.0003714599609375	0.0441131591796875
19	0.04638671875	252.609686362222	-0.0003670654296875	0.046539306640625
20	0.048828125	252.63408636216	-0.000374542236328125	0.0489898681640625
21	0.05126953125	252.658486362099	-0.000365020751953125	0.0513916015625
22	0.0537109375	252.682886362037	-0.00037164306640625	0.053924560546875
23	0.05615234375	252.707286361975	-0.0003651123046875	0.0562744140625
24	0.05859375	252.731686361914	-0.000368927001953125	0.0587158203125
25	0.06103515625	252.756086361852	-0.0003695068359375	0.0611572265625
26	0.0634765625	252.780486361791	-0.000365325927734375	0.06353759765625
27	0.06591796875	252.804886361729	-0.000370635986328125	0.0660400390625
28	0.068359375	252.829286361667	-0.000362060546875	0.06842041015625
29	0.07080078125	252.853686361606	-0.000371063232421875	0.0709228515625
30	0.0732421875	252.878086361544	-0.000363372802734375	0.0733642578125
31	0.07568359375	252.902486361483	-0.000366943359375	0.075775146484375
32	0.078125	252.926886361421	-0.00036553955078125	0.078216552734375
33	0.08056640625	252.951286361359	-0.000364105224609375	0.0806884765625
34	0.0830078125	252.975686361298	-0.000369781494140625	0.0831298828125
35	0.08544921875	253.000086361236	-0.00036151123046875	0.0855712890625
36	0.087890625	253.024486361175	-0.000368804931640625	0.0880126953125
37	0.09033203125	253.048886361113	-0.000360260009765625	0.090423583984375
38	0.0927734375	253.073286361051	-0.000366668701171875	0.092864990234375
39	0.09521484375	253.09768636099	-0.000364410400390625	0.0953369140625
40	0.09765625	253.122086360928	-0.000363067626953125	0.097747802734375
41	0.10009765625	253.146486360867	-0.0003663330078125	0.1002197265625
42	0.1025390625	253.170886360805	-0.000359771728515625	0.102630615234375
43	0.10498046875	253.195286360743	-0.000368682861328125	0.1051025390625
44	0.107421875	253.219686360682	-0.000359344482421875	0.107513427734375
45	0.10986328125	253.24408636062	-0.000365020751953125	0.1099853515625
46	0.1123046875	253.268486360559	-0.000360809326171875	0.11236572265625
47	0.11474609375	253.292886360497	-0.0003621826171875	0.1148681640625
48	0.1171875	253.317286360435	-0.000365325927734375	0.1173095703125
49	0.11962890625	253.341686360374	-0.000359283447265625	0.1197509765625
50	0.1220703125	253.366086360312	-0.000366119384765625	0.122222900390625
51	0.12451171875	253.390486360251	-0.00035699462890625	0.124603271484375
52	0.126953125	253.414886360189	-0.0003653564453125	0.12701416015625
53	0.12939453125	253.439286360127	-0.000360107421875	0.129486083984375
54	0.1318359375	253.463686360066	-0.000361419677734375	0.131927490234375
55	0.13427734375	253.488086360004	-0.000362091064453125	0.134429931640625
56	0.13671875	253.512486359942	-0.000358245849609375	0.136749267578125
57	0.13916015625	253.536886359881	-0.00036578369140625	0.1392822265625
58	0.1416015625	253.561286359819	-0.0003564453125	0.14166259765625
59	0.14404296875	253.585686359758	-0.000363311767578125	0.1441650390625
60	0.146484375	253.610086359696	-0.000356475830078125	0.1466064453125
61	0.14892578125	253.634486359634	-0.000360992431640625	0.149078369140625
62	0.1513671875	253.658886359573	-0.00036114501953125	0.151458740234375
63	0.15380859375	253.683286359511	-0.000357391357421875	0.153839111328125
64	0.15625	253.70768635945	-0.000362640380859375	0.1563720703125
65	0.15869140625	253.732086359388	-0.000354522705078125	0.15875244140625
66	0.1611328125	253.756486359326	-0.00036346435546875	0.1612548828125
67	0.16357421875	253.780886359265	-0.00035565185546875	0.163665771484375
68	0.166015625	253.805286359203	-0.000359527587890625	0.166168212890625
69	0.16845703125	253.829686359142	-0.0003575439453125	0.168548583984375
70	0.1708984375	253.85408635908	-0.000356597900390625	0.1710205078125
71	0.17333984375	253.878486359018	-0.0003616943359375	0.17340087890625
72	0.17578125	253.902886358957	-0.000353759765625	0.1759033203125
73	0.17822265625	253.927286358895	-0.00036102294921875	0.178375244140625
74	0.1806640625	253.951686358834	-0.0003524169921875	0.180755615234375
75	0.18310546875	253.976086358772	-0.000359130859375	0.183135986328125
76	0.185546875	254.00048635871	-0.0003564453125	0.1856689453125
77	0.18798828125	254.024886358649	-0.00035540771484375	0.188018798828125
78	0.1904296875	254.049286358587	-0.0003582763671875	0.190521240234375
79	0.19287109375	254.073686358526	-0.0003521728515625	0.1929931640625
80	0.1953125	254.098086358464	-0.000360748291015625	0.195404052734375
81	0.19775390625	254.122486358402	-0.00035150146484375	0.19781494140625
82	0.2001953125	254.146886358341	-0.000357330322265625	0.200347900390625
83	0.20263671875	254.171286358279	-0.000352783203125	0.202728271484375
84	0.205078125	254.195686358218	-0.000354736328125	0.20513916015625
85	0.20751953125	254.220086358156	-0.000357330322265625	0.2076416015625
86	0.2099609375	254.244486358094	-0.0003515625	0.2100830078125
87	0.21240234375	254.268886358033	-0.000358123779296875	0.2125244140625
88	0.21484375	254.293286357971	-0.000349212646484375	0.21490478515625
89	0.21728515625	254.31768635791	-0.00035748291015625	0.217376708984375
90	0.2197265625	254.342086357848	-0.00035211181640625	0.219818115234375
91	0.22216796875	254.366486357786	-0.00035369873046875	0.22222900390625
92	0.224609375	254.390886357725	-0.000354217529296875	0.2247314453125
93	0.22705078125	254.415286357663	-0.00035089111328125	0.227142333984375
94	0.2294921875	254.439686357602	-0.000358123779296875	0.229583740234375
95	0.23193359375	254.46408635754	-0.000349090576171875	0.23199462890625
96	0.234375	254.488486357478	-0.00035601806640625	0.234466552734375
97	0.23681640625	254.512886357417	-0.0003489990234375	0.236907958984375
98	0.2392578125	254.537286357355	-0.00035382080078125	0.239410400390625
99	0.24169921875	254.561686357294	-0.000353607177734375	0.24176025390625
100	0.244140625	254.586086357232	-0.000350494384765625	0.244171142578125
101	0.24658203125	254.61048635717	-0.00035516357421875	0.246673583984375
102	0.2490234375	254.634886357109	-0.0003472900390625	0.249053955078125
103	0.25146484375	254.659286357047	-0.000356292724609375	0.25152587890625
104	0.25390625	254.683686356986	-0.000348236083984375	0.25396728515625
105	0.25634765625	254.708086356924	-0.0003525390625	0.25640869140625
106	0.2587890625	254.732486356862	-0.000350372314453125	0.25885009765625
107	0.26123046875	254.756886356801	-0.00034979248046875	0.26129150390625
108	0.263671875	254.781286356739	-0.000354827880859375	0.2637939453125
109	0.26611328125	254.805686356677	-0.00034722900390625	0.266143798828125
110	0.2685546875	254.830086356616	-0.000354156494140625	0.26861572265625
111	0.27099609375	254.854486356554	-0.000345458984375	0.27105712890625
112	0.2734375	254.878886356493	-0.0003524169921875	0.273529052734375
113	0.27587890625	254.903286356431	-0.000349334716796875	0.27593994140625
114	0.2783203125	254.927686356369	-0.000348724365234375	0.27838134765625
115	0.28076171875	254.952086356308	-0.0003514404296875	0.28082275390625
116	0.283203125	254.976486356246	-0.00034564208984375	0.28326416015625
117	0.28564453125	255.000886356185	-0.00035394287109375	0.28570556640625
118	0.2880859375	255.025286356123	-0.000344635009765625	0.2882080078125
119	0.29052734375	255.049686356061	-0.000350555419921875	0.29058837890625
120	0.29296875	255.074086356	-0.000345611572265625	0.293060302734375
121	0.29541015625	255.098486355938	-0.0003480224609375	0.29547119140625
122	0.2978515625	255.122886355877	-0.0003502197265625	0.29791259765625
123	0.30029296875	255.147286355815	-0.0003448486328125	0.30035400390625
124	0.302734375	255.171686355753	-0.00035101318359375	0.3028564453125
125	0.30517578125	255.196086355692	-0.0003421630859375	0.30523681640625
126	0.3076171875	255.22048635563	-0.0003504638671875	0.30767822265625
127	0.31005859375	255.244886355569	-0.0003447265625	0.31011962890625
128	0.3125	255.269286355507	-0.000346466064453125	0.312530517578125
129	0.31494140625	255.293686355445	-0.000346527099609375	0.314971923828125
130	0.3173828125	255.318086355384	-0.000343109130859375	0.31744384765625
131	0.31982421875	255.342486355322	-0.000349853515625	0.31988525390625
132	0.322265625	255.366886355261	-0.000340911865234375	0.322296142578125
133	0.32470703125	255.391286355199	-0.00034765625	0.324737548828125
134	0.3271484375	255.415686355137	-0.00034027099609375	0.327178955078125
135	0.32958984375	255.440086355076	-0.0003450927734375	0.329620361328125
136	0.33203125	255.464486355014	-0.000344573974609375	0.33209228515625
137	0.33447265625	255.488886354953	-0.0003414306640625	0.334564208984375
138	0.3369140625	255.513286354891	-0.000345916748046875	0.337005615234375
139	0.33935546875	255.537686354829	-0.000338165283203125	0.33941650390625
140	0.341796875	255.562086354768	-0.000347076416015625	0.341827392578125
141	0.34423828125	255.586486354706	-0.0003387451171875	0.344268798828125
142	0.3466796875	255.610886354645	-0.00034283447265625	0.346710205078125
143	0.34912109375	255.635286354583	-0.0003404541015625	0.349151611328125
144	0.3515625	255.659686354521	-0.0003399658203125	0.351654052734375
145	0.35400390625	255.68408635446	-0.000344482421875	0.354095458984375
146	0.3564453125	255.708486354398	-0.000337066650390625	0.356536865234375
147	0.35888671875	255.732886354337	-0.00034381103515625	0.358978271484375
148	0.361328125	255.757286354275	-0.00033502197265625	0.361419677734375
149	0.36376953125	255.781686354213	-0.000341796875	0.363861083984375
150	0.3662109375	255.806086354152	-0.00033856201171875	0.366302490234375
151	0.36865234375	255.83048635409	-0.00033807373046875	0.36865234375
152	0.37109375	255.854886354029	-0.000340301513671875	0.37115478515625
153	0.37353515625	255.879286353967	-0.0003345947265625	0.373626708984375
154	0.3759765625	255.903686353905	-0.0003426513671875	0.3760986328125
155	0.37841796875	255.928086353844	-0.000333465576171875	0.37841796875
156	0.380859375	255.952486353782	-0.000339111328125	0.380950927734375
157	0.38330078125	255.97688635372	-0.000334320068359375	0.38336181640625
158	0.3857421875	256.001286353659	-0.00033642578125	0.38580322265625
159	0.38818359375	256.025686353597	-0.00033843994140625	0.388275146484375
160	0.390625	256.050086353536	-0.000332977294921875	0.390625
161	0.39306640625	256.074486353474	-0.00033880615234375	0.39306640625
162	0.3955078125	256.098886353412	-0.000329803466796875	0.395599365234375
163	0.39794921875	256.123286353351	-0.0003377685546875	0.39794921875
164	0.400390625	256.147686353289	-0.00033172607421875	0.400421142578125
165	0.40283203125	256.172086353228	-0.000333587646484375	0.402923583984375
166	0.4052734375	256.196486353166	-0.000333465576171875	0.40533447265625
167	0.40771484375	256.220886353104	-0.0003302001953125	0.407806396484375
168	0.41015625	256.245286353043	-0.000336639404296875	0.41015625
169	0.41259765625	256.269686352981	-0.000327667236328125	0.41265869140625
170	0.4150390625	256.29408635292	-0.000334197998046875	0.415008544921875
171	0.41748046875	256.318486352858	-0.000326690673828125	0.417572021484375
172	0.419921875	256.342886352796	-0.000331451416015625	0.41998291015625
173	0.42236328125	256.367286352735	-0.00033050537109375	0.422393798828125
174	0.4248046875	256.391686352673	-0.00032733154296875	0.4248046875
175	0.42724609375	256.416086352612	-0.0003314208984375	0.427337646484375
176	0.4296875	256.44048635255	-0.00032354736328125	0.429718017578125
177	0.43212890625	256.464886352488	-0.000331939697265625	0.432220458984375
178	0.4345703125	256.489286352427	-0.000323272705078125	0.434600830078125
179	0.43701171875	256.513686352365	-0.000327117919921875	0.43701171875
180	0.439453125	256.538086352304	-0.00032421875	0.439453125
181	0.44189453125	256.562486352242	-0.00032354736328125	0.441925048828125
182	0.4443359375	256.58688635218	-0.000327545166015625	0.44439697265625
183	0.44677734375	256.611286352119	-0.00031976318359375	0.44683837890625
184	0.44921875	256.635686352057	-0.000326324462890625	0.44921875
185	0.45166015625	256.660086351996	-0.000316864013671875	0.451690673828125
186	0.4541015625	256.684486351934	-0.000323516845703125	0.454132080078125
187	0.45654296875	256.708886351872	-0.00031982421875	0.45660400390625
188	0.458984375	256.733286351811	-0.000319000244140625	0.458984375
189	0.46142578125	256.757686351749	-0.000320831298828125	0.46142578125
190	0.4638671875	256.782086351688	-0.000314849853515625	0.46392822265625
191	0.46630859375	256.806486351626	-0.000322479248046875	0.46636962890625
192	0.46875	256.830886351564	-0.000312774658203125	0.46875
193	0.47119140625	256.855286351503	-0.000318267822265625	0.471221923828125
194	0.4736328125	256.879686351441	-0.00031268310546875	0.473663330078125
195	0.47607421875	256.90408635138	-0.000314697265625	0.47607421875
196	0.478515625	256.928486351318	-0.000315948486328125	0.478515625
197	0.48095703125	256.952886351256	-0.000310394287109375	0.48095703125
198	0.4833984375	256.977286351195	-0.00031585693359375	0.483428955078125
199	0.48583984375	257.001686351133	-0.00030633544921875	0.48590087890625
200	0.48828125	257.026086351072	-0.0003138427734375	0.48828125
201	0.49072265625	257.05048635101	-0.000307037353515625	0.49072265625
202	0.4931640625	257.074886350948	-0.0003087158203125	0.49322509765625
203	0.49560546875	257.099286350887	-0.000307830810546875	0.495635986328125
204	0.498046875	257.123686350825	-0.000304351806640625	0.498046875
205	0.50048828125	257.148086350763	-0.00031005859375	0.50048828125
206	0.5029296875	257.172486350702	-0.000300567626953125	0.502899169921875
207	0.50537109375	257.19688635064	-0.000306640625	0.505340576171875
208	0.5078125	257.221286350579	-0.00029852294921875	0.5078125
209	0.51025390625	257.245686350517	-0.000302825927734375	0.51031494140625
210	0.5126953125	257.270086350455	-0.000301025390625	0.51275634765625
211	0.51513671875	257.294486350394	-0.000297454833984375	0.515106201171875
212	0.517578125	257.318886350332	-0.000300750732421875	0.517608642578125
213	0.52001953125	257.343286350271	-0.000292236328125	0.51995849609375
214	0.5224609375	257.367686350209	-0.00029986572265625	0.5224609375
215	0.52490234375	257.392086350147	-0.000290557861328125	0.524871826171875
216	0.52734375	257.416486350086	-0.0002939453125	0.527313232421875
217	0.52978515625	257.440886350024	-0.0002901611328125	0.52978515625
218	0.5322265625	257.465286349963	-0.00028900146484375	0.5322265625
219	0.53466796875	257.489686349901	-0.0002918701171875	0.53466796875
220	0.537109375	257.514086349839	-0.000283721923828125	0.53717041015625
221	0.53955078125	257.538486349778	-0.000289215087890625	0.53955078125
222	0.5419921875	257.562886349716	-0.0002791748046875	0.5419921875
223	0.54443359375	257.587286349655	-0.000285003662109375	0.544403076171875
224	0.546875	257.611686349593	-0.000280059814453125	0.546875
225	0.54931640625	257.636086349531	-0.0002786865234375	0.549346923828125
226	0.5517578125	257.66048634947	-0.000279205322265625	0.55181884765625
227	0.55419921875	257.684886349408	-0.000272918701171875	0.55419921875
228	0.556640625	257.709286349347	-0.00027935791015625	0.556610107421875
229	0.55908203125	257.733686349285	-0.000268890380859375	0.55908203125
230	0.5615234375	257.758086349223	-0.000273406982421875	0.561553955078125
231	0.56396484375	257.782486349162	-0.0002667236328125	0.56396484375
232	0.56640625	257.8068863491	-0.000268157958984375	0.56640625
233	0.56884765625	257.831286349039	-0.000268280029296875	0.56884765625
234	0.5712890625	257.855686348977	-0.000262115478515625	0.571258544921875
235	0.57373046875	257.880086348915	-0.000266204833984375	0.573760986328125
236	0.576171875	257.904486348854	-0.00025634765625	0.57611083984375
237	0.57861328125	257.928886348792	-0.000262939453125	0.578521728515625
238	0.5810546875	257.953286348731	-0.00025518798828125	0.58099365234375
239	0.58349609375	257.977686348669	-0.000255889892578125	0.58343505859375
240	0.5859375	258.002086348607	-0.000253662109375	0.585968017578125
241	0.58837890625	258.026486348546	-0.000249786376953125	0.588348388671875
242	0.5908203125	258.050886348484	-0.000254119873046875	0.5908203125
243	0.59326171875	258.075286348423	-0.000244140625	0.59326171875
244	0.595703125	258.099686348361	-0.000249237060546875	0.595733642578125
245	0.59814453125	258.124086348299	-0.000239990234375	0.59814453125
246	0.6005859375	258.148486348238	-0.000243499755859375	0.600555419921875
247	0.60302734375	258.172886348176	-0.000240570068359375	0.602935791015625
248	0.60546875	258.197286348115	-0.000236175537109375	0.60540771484375
249	0.60791015625	258.221686348053	-0.000238250732421875	0.60784912109375
250	0.6103515625	258.246086347991	-0.000229278564453125	0.610260009765625
251	0.61279296875	258.27048634793	-0.0002357177734375	0.612762451171875
252	0.615234375	258.294886347868	-0.0002254638671875	0.615203857421875
253	0.61767578125	258.319286347806	-0.00022802734375	0.617645263671875
254	0.6201171875	258.343686347745	-0.000222930908203125	0.62005615234375
255	0.62255859375	258.368086347683	-0.000221099853515625	0.622528076171875
256	0.625	258.392486347622	-0.000222747802734375	0.624969482421875
257	0.62744140625	258.41688634756	-0.00021392822265625	0.627410888671875
258	0.6298828125	258.441286347498	-0.000218292236328125	0.629852294921875
259	0.63232421875	258.465686347437	-0.000207427978515625	0.63226318359375
260	0.634765625	258.490086347375	-0.00021209716796875	0.63470458984375
261	0.63720703125	258.514486347314	-0.000205841064453125	0.637115478515625
262	0.6396484375	258.538886347252	-0.00020379638671875	0.63958740234375
263	0.64208984375	258.56328634719	-0.000202880859375	0.64202880859375
264	0.64453125	258.587686347129	-0.000195892333984375	0.644500732421875
265	0.64697265625	258.612086347067	-0.00020074462890625	0.646942138671875
266	0.6494140625	258.636486347006	-0.000189422607421875	0.6492919921875
267	0.65185546875	258.660886346944	-0.00019268798828125	0.651763916015625
268	0.654296875	258.685286346882	-0.000184661865234375	0.65411376953125
269	0.65673828125	258.709686346821	-0.000185150146484375	0.656646728515625
270	0.6591796875	258.734086346759	-0.000183685302734375	0.659088134765625
271	0.66162109375	258.758486346698	-0.000176513671875	0.6614990234375
272	0.6640625	258.782886346636	-0.0001790771484375	0.663970947265625
273	0.66650390625	258.807286346574	-0.00016815185546875	0.666412353515625
274	0.6689453125	258.831686346513	-0.00017333984375	0.668853759765625
275	0.67138671875	258.856086346451	-0.000164093017578125	0.6712646484375
276	0.673828125	258.88048634639	-0.00016375732421875	0.673675537109375
277	0.67626953125	258.904886346328	-0.0001600341796875	0.6761474609375
278	0.6787109375	258.929286346266	-0.00015478515625	0.6785888671875
279	0.68115234375	258.953686346205	-0.000157501220703125	0.6810302734375
280	0.68359375	258.978086346143	-0.00014617919921875	0.683502197265625
281	0.68603515625	259.002486346082	-0.000149749755859375	0.6859130859375
282	0.6884765625	259.02688634602	-0.000138885498046875	0.6883544921875
283	0.69091796875	259.051286345958	-0.000141082763671875	0.6907958984375
284	0.693359375	259.075686345897	-0.000136383056640625	0.693267822265625
285	0.69580078125	259.100086345835	-0.00013092041015625	0.695648193359375
286	0.6982421875	259.124486345774	-0.000130889892578125	0.6981201171875
287	0.70068359375	259.148886345712	-0.0001209716796875	0.700531005859375
288	0.703125	259.17328634565	-0.000125579833984375	0.7030029296875
289	0.70556640625	259.197686345589	-0.00011376953125	0.70538330078125
290	0.7080078125	259.222086345527	-0.000114532470703125	0.707916259765625
291	0.71044921875	259.246486345466	-0.000107879638671875	0.7103271484375
292	0.712890625	259.270886345404	-0.0001046142578125	0.71270751953125
293	0.71533203125	259.295286345342	-0.000103790283203125	0.715179443359375
294	0.7177734375	259.319686345281	-9.3597412109375E-05	0.717620849609375
295	0.72021484375	259.344086345219	-9.588623046875E-05	0.720001220703125
296	0.72265625	259.368486345158	-8.343505859375E-05	0.722503662109375
297	0.72509765625	259.392886345096	-8.6273193359375E-05	0.724884033203125
298	0.7275390625	259.417286345034	-7.8765869140625E-05	0.72735595703125
299	0.72998046875	259.441686344973	-7.4920654296875E-05	0.7298583984375
300	0.732421875	259.466086344911	-7.2021484375E-05	0.732269287109375
301	0.73486328125	259.49048634485	-6.31103515625E-05	0.734710693359375
302	0.7373046875	259.514886344788	-6.622314453125E-05	0.737091064453125
303	0.73974609375	259.539286344726	-5.3070068359375E-05	0.73956298828125
304	0.7421875	259.563686344665	-5.450439453125E-05	0.741943359375
305	0.74462890625	259.588086344603	-4.473876953125E-05	0.7445068359375
306	0.7470703125	259.612486344541	-4.315185546875E-05	0.7469482421875
307	0.74951171875	259.63688634448	-3.97308349609375E-05	0.74932861328125
308	0.751953125	259.661286344418	-3.1170654296875E-05	0.75103759765625
309	0.75439453125	259.685686344357	-3.0938720703125E-05	0.7537841796875
310	0.7568359375	259.710086344295	-1.842041015625E-05	0.7562255859375
311	0.75927734375	259.734486344233	-2.09930419921875E-05	0.7586669921875
312	0.76171875	259.758886344172	-9.332275390625E-06	0.7611083984375
313	0.76416015625	259.78328634411	-7.0068359375E-06	0.7635498046875
314	0.7666015625	259.807686344049	-5.9814453125E-07	0.76629638671875
315	0.76904296875	259.832086343987	6.3690185546875E-06	0.7684326171875
316	0.771484375	259.856486343925	6.4361572265625E-06	0.77117919921875
317	0.77392578125	259.880886343864	2.0068359375E-05	0.7733154296875
318	0.7763671875	259.905286343802	1.9134521484375E-05	0.775146484375
319	0.77880859375	259.929686343741	3.22296142578125E-05	0.777587890625
320	0.78125	259.954086343679	3.25927734375E-05	0.7806396484375
321	0.78369140625	259.978486343617	4.0301513671875E-05	0.782470703125
322	0.7861328125	260.002886343556	4.815673828125E-05	0.78582763671875
323	0.78857421875	260.027286343494	5.133056640625E-05	0.78765869140625
324	0.791015625	260.051686343433	6.3079833984375E-05	0.7904052734375
325	0.79345703125	260.076086343371	6.170654296875E-05	0.792236328125
326	0.7958984375	260.100486343309	7.611083984375E-05	0.7952880859375
327	0.79833984375	260.124886343248	7.84912109375E-05	0.797119140625
328	0.80078125	260.149286343186	8.85009765625E-05	0.79986572265625
329	0.80322265625	260.173686343125	9.4390869140625E-05	0.802001953125
330	0.8056640625	260.198086343063	9.8358154296875E-05	0.80474853515625
331	0.80810546875	260.222486343001	0.00011090087890625	0.80718994140625
332	0.810546875	260.24688634294	0.00011181640625	0.80963134765625
333	0.81298828125	260.271286342878	0.000126922607421875	0.81207275390625
334	0.8154296875	260.295686342817	0.00012725830078125	0.814208984375
335	0.81787109375	260.320086342755	0.000139190673828125	0.81695556640625
336	0.8203125	260.344486342693	0.000145660400390625	0.81939697265625
337	0.82275390625	260.368886342632	0.000152496337890625	0.82244873046875
338	0.8251953125	260.39328634257	0.0001636962890625	0.8245849609375
339	0.82763671875	260.417686342509	0.0001650390625	0.82672119140625
340	0.830078125	260.442086342447	0.00018115234375	0.8294677734375
341	0.83251953125	260.466486342385	0.00018365478515625	0.8319091796875
342	0.8349609375	260.490886342324	0.00019744873046875	0.83404541015625
343	0.83740234375	260.515286342262	0.00020269775390625	0.8367919921875
344	0.83984375	260.539686342201	0.0002109375	0.8392333984375
345	0.84228515625	260.564086342139	0.000222930908203125	0.84075927734375
346	0.8447265625	260.588486342077	0.00022784423828125	0.8441162109375
347	0.84716796875	260.612886342016	0.000243804931640625	0.84625244140625
348	0.849609375	260.637286341954	0.00024578857421875	0.84930419921875
349	0.85205078125	260.661686341893	0.00026171875	0.85113525390625
350	0.8544921875	260.686086341831	0.00026849365234375	0.85357666015625
351	0.85693359375	260.710486341769	0.000279754638671875	0.85601806640625
352	0.859375	260.734886341708	0.00029058837890625	0.8587646484375
353	0.86181640625	260.759286341646	0.000296783447265625	0.86090087890625
354	0.8642578125	260.783686341584	0.0003135986328125	0.8636474609375
355	0.86669921875	260.808086341523	0.000319122314453125	0.86578369140625
356	0.869140625	260.832486341461	0.0003367919921875	0.867919921875
357	0.87158203125	260.8568863414	0.00034283447265625	0.87127685546875
358	0.8740234375	260.881286341338	0.000356201171875	0.872802734375
359	0.87646484375	260.905686341276	0.0003685302734375	0.8758544921875
360	0.87890625	260.930086341215	0.000378204345703125	0.87799072265625
361	0.88134765625	260.954486341153	0.000395111083984375	0.88043212890625
362	0.8837890625	260.978886341092	0.000400909423828125	0.88287353515625
363	0.88623046875	261.00328634103	0.000420196533203125	0.88470458984375
364	0.888671875	261.027686340968	0.000428863525390625	0.8880615234375
365	0.89111328125	261.052086340907	0.00044512939453125	0.88958740234375
366	0.8935546875	261.076486340845	0.00045733642578125	0.8929443359375
367	0.89599609375	261.100886340784	0.00046893310546875	0.8953857421875
368	0.8984375	261.125286340722	0.000487030029296875	0.89752197265625
369	0.90087890625	261.14968634066	0.0004962158203125	0.899658203125
370	0.9033203125	261.174086340599	0.00051788330078125	0.9027099609375
371	0.90576171875	261.198486340537	0.0005267333984375	0.90484619140625
372	0.908203125	261.222886340476	0.00054534912109375	0.90728759765625
373	0.91064453125	261.247286340414	0.00055938720703125	0.909423828125
374	0.9130859375	261.271686340352	0.000574951171875	0.91217041015625
375	0.91552734375	261.296086340291	0.00059326171875	0.91461181640625
376	0.91796875	261.320486340229	0.00060455322265625	0.91766357421875
377	0.92041015625	261.344886340168	0.00062713623046875	0.919189453125
378	0.9228515625	261.369286340106	0.00063934326171875	0.921630859375
379	0.92529296875	261.393686340044	0.0006610107421875	0.9246826171875
380	0.927734375	261.418086339983	0.00067535400390625	0.92681884765625
381	0.93017578125	261.442486339921	0.00069305419921875	0.92926025390625
382	0.9326171875	261.46688633986	0.0007135009765625	0.93231201171875
383	0.93505859375	261.491286339798	0.000728759765625	0.93414306640625
384	0.9375	261.515686339736	0.00075286865234375	0.93597412109375
385	0.93994140625	261.540086339675	0.00076629638671875	0.9393310546875
386	0.9423828125	261.564486339613	0.000791015625	0.941162109375
387	0.94482421875	261.588886339552	0.00080841064453125	0.94390869140625
388	0.947265625	261.61328633949	0.00082977294921875	0.94635009765625
389	0.94970703125	261.637686339428	0.000850830078125	0.94818115234375
390	0.9521484375	261.662086339367	0.00086883544921875	0.9515380859375
391	0.95458984375	261.686486339305	0.000894775390625	0.9539794921875
392	0.95703125	261.710886339244	0.0009124755859375	0.95611572265625
393	0.95947265625	261.735286339182	0.00093963623046875	0.9588623046875
394	0.9619140625	261.75968633912	0.000958251953125	0.960693359375
395	0.96435546875	261.784086339059	0.0009832763671875	0.963134765625
396	0.966796875	261.808486338997	0.00100677490234375	0.96588134765625
397	0.96923828125	261.832886338936	0.0010296630859375	0.9686279296875
398	0.9716796875	261.857286338874	0.00105712890625	0.97015380859375
399	0.97412109375	261.881686338812	0.0010772705078125	0.97320556640625
400	0.9765625	261.906086338751	0.0011077880859375	0.975341796875
401	0.97900390625	261.930486338689	0.00113037109375	0.97869873046875
402	0.9814453125	261.954886338627	0.0011590576171875	0.980224609375
403	0.98388671875	261.979286338566	0.00118408203125	0.982666015625
404	0.986328125	262.003686338504	0.00121002197265625	0.98541259765625
405	0.98876953125	262.028086338443	0.00124053955078125	0.98785400390625
406	0.9912109375	262.052486338381	0.001265869140625	0.989990234375
407	0.99365234375	262.076886338319	0.0012994384765625	0.99273681640625
408	0.99609375	262.101286338258	0.0013238525390625	0.99517822265625
409	0.99853515625	262.125686338196	0.00135650634765625	0.99761962890625
410	1.0009765625	262.150086338135	0.001385498046875	1.00067138671875
411	1.00341796875	262.174486338073	0.00141632080078125	1.0028076171875
412	1.005859375	262.198886338011	0.0014483642578125	1.00433349609375
413	1.00830078125	262.22328633795	0.00147674560546875	1.00738525390625
414	1.0107421875	262.247686337888	0.00151275634765625	1.0101318359375
415	1.01318359375	262.272086337827	0.0015423583984375	1.0125732421875
416	1.015625	262.296486337765	0.00157928466796875	1.014404296875
417	1.01806640625	262.320886337703	0.00161102294921875	1.0174560546875
418	1.0205078125	262.345286337642	0.0016461181640625	1.019287109375
419	1.02294921875	262.36968633758	0.00168243408203125	1.02203369140625
420	1.025390625	262.394086337519	0.00171600341796875	1.024169921875
421	1.02783203125	262.418486337457	0.00175506591796875	1.02691650390625
422	1.0302734375	262.442886337395	0.00178802490234375	1.02935791015625
423	1.03271484375	262.467286337334	0.0018292236328125	1.03179931640625
424	1.03515625	262.491686337272	0.001865234375	1.0345458984375
425	1.03759765625	262.516086337211	0.00190521240234375	1.036376953125
426	1.0400390625	262.540486337149	0.0019439697265625	1.03912353515625
427	1.04248046875	262.564886337087	0.001981201171875	1.04156494140625
428	1.044921875	262.589286337026	0.00202423095703125	1.04400634765625
429	1.04736328125	262.613686336964	0.00206268310546875	1.04644775390625
430	1.0498046875	262.638086336903	0.0021075439453125	1.04888916015625
431	1.05224609375	262.662486336841	0.00214691162109375	1.051025390625
432	1.0546875	262.686886336779	0.0021905517578125	1.0540771484375
433	1.05712890625	262.711286336718	0.00223419189453125	1.05621337890625
434	1.0595703125	262.735686336656	0.0022772216796875	1.0589599609375
435	1.06201171875	262.760086336595	0.00232330322265625	1.06109619140625
436	1.064453125	262.784486336533	0.00236541748046875	1.063232421875
437	1.06689453125	262.808886336471	0.0024139404296875	1.065673828125
438	1.0693359375	262.83328633641	0.0024578857421875	1.068115234375
439	1.07177734375	262.857686336348	0.00250640869140625	1.07086181640625
440	1.07421875	262.882086336287	0.00255279541015625	1.072998046875
441	1.07666015625	262.906486336225	0.00260009765625	1.0760498046875
442	1.0791015625	262.930886336163	0.00265045166015625	1.0784912109375
443	1.08154296875	262.955286336102	0.00269744873046875	1.08062744140625
444	1.083984375	262.97968633604	0.0027496337890625	1.08306884765625
445	1.08642578125	263.004086335979	0.00279693603515625	1.0858154296875
446	1.0888671875	263.028486335917	0.0028497314453125	1.08795166015625
447	1.09130859375	263.052886335855	0.0028997802734375	1.09039306640625
448	1.09375	263.077286335794	0.00295166015625	1.092529296875
449	1.09619140625	263.101686335732	0.00300445556640625	1.0955810546875
450	1.0986328125	263.12608633567	0.00305511474609375	1.097412109375
451	1.10107421875	263.150486335609	0.00311065673828125	1.10015869140625
452	1.103515625	263.174886335547	0.00316253662109375	1.102294921875
453	1.10595703125	263.199286335486	0.00321868896484375	1.1053466796875
454	1.1083984375	263.223686335424	0.00327117919921875	1.10748291015625
455	1.11083984375	263.248086335362	0.00332611083984375	1.10992431640625
456	1.11328125	263.272486335301	0.00338165283203125	1.112060546875
457	1.11572265625	263.296886335239	0.003436279296875	1.11419677734375
458	1.1181640625	263.321286335178	0.00349365234375	1.1175537109375
459	1.12060546875	263.345686335116	0.0035467529296875	1.11968994140625
460	1.123046875	263.370086335054	0.00360443115234375	1.12274169921875
461	1.12548828125	263.394486334993	0.00365875244140625	1.12457275390625
462	1.1279296875	263.418886334931	0.0037152099609375	1.126708984375
463	1.13037109375	263.44328633487	0.00376983642578125	1.12884521484375
464	1.1328125	263.467686334808	0.00382354736328125	1.131591796875
465	1.13525390625	263.492086334746	0.00387908935546875	1.13372802734375
466	1.1376953125	263.516486334685	0.0039312744140625	1.13677978515625
467	1.14013671875	263.540886334623	0.003985595703125	1.138916015625
468	1.142578125	263.565286334562	0.00403533935546875	1.14105224609375
469	1.14501953125	263.5896863345	0.00408660888671875	1.143798828125
470	1.1474609375	263.614086334438	0.0041357421875	1.146240234375
471	1.14990234375	263.638486334377	0.004183349609375	1.1492919921875
472	1.15234375	263.662886334315	0.00423004150390625	1.15203857421875
473	1.15478515625	263.687286334254	0.0042742919921875	1.15386962890625
474	1.1572265625	263.711686334192	0.00431884765625	1.15631103515625
475	1.15966796875	263.73608633413	0.00436004638671875	1.158447265625
476	1.162109375	263.760486334069	0.00440093994140625	1.160888671875
477	1.16455078125	263.784886334007	0.00443939208984375	1.16363525390625
478	1.1669921875	263.809286333946	0.0044769287109375	1.165771484375
479	1.16943359375	263.833686333884	0.0045135498046875	1.16790771484375
480	1.171875	263.858086333822	0.00454833984375	1.170654296875
481	1.17431640625	263.882486333761	0.00458251953125	1.17279052734375
482	1.1767578125	263.906886333699	0.0046142578125	1.17584228515625
483	1.17919921875	263.931286333638	0.00464630126953125	1.1785888671875
484	1.181640625	263.955686333576	0.00467620849609375	1.18011474609375
485	1.18408203125	263.980086333514	0.004705810546875	1.18255615234375
486	1.1865234375	264.004486333453	0.00473419189453125	1.18499755859375
487	1.18896484375	264.028886333391	0.00476104736328125	1.18804931640625
488	1.19140625	264.05328633333	0.0047882080078125	1.190185546875
489	1.19384765625	264.077686333268	0.00481353759765625	1.192626953125
490	1.1962890625	264.102086333206	0.00483917236328125	1.19476318359375
491	1.19873046875	264.126486333145	0.0048626708984375	1.197509765625
492	1.201171875	264.150886333083	0.004886474609375	1.199951171875
493	1.19873046875	264.175286333022	0.00486297607421875	1.197509765625
494	1.1962890625	264.19968633296	0.00483856201171875	1.19537353515625
495	1.19384765625	264.224086332898	0.0048138427734375	1.19293212890625
496	1.19140625	264.248486332837	0.00478729248046875	1.19049072265625
497	1.18896484375	264.272886332775	0.0047613525390625	1.1883544921875
498	1.1865234375	264.297286332713	0.00473358154296875	1.185302734375
499	1.18408203125	264.321686332652	0.0047052001953125	1.182861328125
500	1.181640625	264.34608633259	0.0046759033203125	1.180419921875
501	1.17919921875	264.370486332529	0.00464508056640625	1.17828369140625
502	1.1767578125	264.394886332467	0.00461395263671875	1.17584228515625
503	1.17431640625	264.419286332405	0.0045806884765625	1.17279052734375
504	1.171875	264.443686332344	0.0045477294921875	1.1712646484375
505	1.16943359375	264.468086332282	0.00451141357421875	1.168212890625
506	1.1669921875	264.492486332221	0.00447540283203125	1.16607666015625
507	1.16455078125	264.516886332159	0.00443756103515625	1.16363525390625
508	1.162109375	264.541286332097	0.004398193359375	1.1614990234375
509	1.15966796875	264.565686332036	0.00435791015625	1.158447265625
510	1.1572265625	264.590086331974	0.00431427001953125	1.156005859375
511	1.15478515625	264.614486331913	0.00427215576171875	1.15386962890625
512	1.15234375	264.638886331851	0.0042254638671875	1.151123046875
513	1.14990234375	264.663286331789	0.00417999267578125	1.1492919921875
514	1.1474609375	264.687686331728	0.004130859375	1.14654541015625
515	1.14501953125	264.712086331666	0.004080810546875	1.14410400390625
516	1.142578125	264.736486331605	0.00403076171875	1.141357421875
517	1.14013671875	264.760886331543	0.00397796630859375	1.13922119140625
518	1.1376953125	264.785286331481	0.00392669677734375	1.1370849609375
519	1.13525390625	264.80968633142	0.0038702392578125	1.1346435546875
520	1.1328125	264.834086331358	0.00381683349609375	1.1322021484375
521	1.13037109375	264.858486331297	0.0037603759765625	1.12945556640625
522	1.1279296875	264.882886331235	0.0037054443359375	1.12640380859375
523	1.12548828125	264.907286331173	0.0036492919921875	1.12457275390625
524	1.123046875	264.931686331112	0.00359161376953125	1.121826171875
525	1.12060546875	264.95608633105	0.00353729248046875	1.119384765625
526	1.1181640625	264.980486330989	0.00347900390625	1.1175537109375
527	1.11572265625	265.004886330927	0.00342529296875	1.114501953125
528	1.11328125	265.029286330865	0.00336669921875	1.11236572265625
529	1.11083984375	265.053686330804	0.00331146240234375	1.109619140625
530	1.1083984375	265.078086330742	0.00325653076171875	1.107177734375
531	1.10595703125	265.102486330681	0.00320037841796875	1.10504150390625
532	1.103515625	265.126886330619	0.00314666748046875	1.102294921875
533	1.10107421875	265.151286330557	0.003089599609375	1.099853515625
534	1.0986328125	265.175686330496	0.003038330078125	1.097412109375
535	1.09619140625	265.200086330434	0.0029827880859375	1.09527587890625
536	1.09375	265.224486330373	0.0029315185546875	1.0931396484375
537	1.09130859375	265.248886330311	0.00287811279296875	1.0906982421875
538	1.0888671875	265.273286330249	0.00282470703125	1.0882568359375
539	1.08642578125	265.297686330188	0.00277496337890625	1.08551025390625
540	1.083984375	265.322086330126	0.00272125244140625	1.08306884765625
541	1.08154296875	265.346486330065	0.00267364501953125	1.080322265625
542	1.0791015625	265.370886330003	0.0026202392578125	1.0784912109375
543	1.07666015625	265.395286329941	0.00257293701171875	1.07574462890625
544	1.07421875	265.41968632988	0.0025225830078125	1.072998046875
545	1.07177734375	265.444086329818	0.0024749755859375	1.0711669921875
546	1.0693359375	265.468486329757	0.0024273681640625	1.0687255859375
547	1.06689453125	265.492886329695	0.0023773193359375	1.0662841796875
548	1.064453125	265.517286329633	0.002333984375	1.06353759765625
549	1.06201171875	265.541686329572	0.0022845458984375	1.0614013671875
550	1.0595703125	265.56608632951	0.002242431640625	1.0589599609375
551	1.05712890625	265.590486329448	0.00219482421875	1.05621337890625
552	1.0546875	265.614886329387	0.00215057373046875	1.053466796875
553	1.05224609375	265.639286329325	0.0021075439453125	1.05133056640625
554	1.0498046875	265.663686329264	0.00206268310546875	1.04888916015625
555	1.04736328125	265.688086329202	0.0020233154296875	1.046142578125
556	1.044921875	265.71248632914	0.0019769287109375	1.043701171875
557	1.04248046875	265.736886329079	0.0019390869140625	1.04156494140625
558	1.0400390625	265.761286329017	0.001895751953125	1.0394287109375
559	1.03759765625	265.785686328956	0.00185699462890625	1.03729248046875
560	1.03515625	265.810086328894	0.00181671142578125	1.03424072265625
561	1.03271484375	265.834486328832	0.00177581787109375	1.03179931640625
562	1.0302734375	265.858886328771	0.00174041748046875	1.029052734375
563	1.02783203125	265.883286328709	0.00169891357421875	1.0272216796875
564	1.025390625	265.907686328648	0.00166595458984375	1.024169921875
565	1.02294921875	265.932086328586	0.0016253662109375	1.02203369140625
566	1.0205078125	265.956486328524	0.0015911865234375	1.01959228515625
567	1.01806640625	265.980886328463	0.00155517578125	1.016845703125
568	1.015625	266.005286328401	0.0015191650390625	1.01470947265625
569	1.01318359375	266.02968632834	0.00148712158203125	1.011962890625
570	1.0107421875	266.054086328278	0.001448974609375	1.009521484375
571	1.00830078125	266.078486328216	0.0014208984375	1.00738525390625
572	1.005859375	266.102886328155	0.00138458251953125	1.0052490234375
573	1.00341796875	266.127286328093	0.00135589599609375	1.0028076171875
574	1.0009765625	266.151686328032	0.00132232666015625	0.99945068359375
575	0.99853515625	266.17608632797	0.0012908935546875	0.9979248046875
576	0.99609375	266.200486327908	0.0012628173828125	0.99517822265625
577	0.99365234375	266.224886327847	0.0012298583984375	0.9930419921875
578	0.9912109375	266.249286327785	0.0012054443359375	0.99029541015625
579	0.98876953125	266.273686327724	0.0011712646484375	0.98785400390625
580	0.986328125	266.298086327662	0.00114715576171875	0.9857177734375
581	0.98388671875	266.3224863276	0.0011175537109375	0.9832763671875
582	0.9814453125	266.346886327539	0.00109161376953125	0.98052978515625
583	0.97900390625	266.371286327477	0.001065673828125	0.9783935546875
584	0.9765625	266.395686327416	0.00103607177734375	0.97564697265625
585	0.97412109375	266.420086327354	0.00101531982421875	0.972900390625
586	0.9716796875	266.444486327292	0.00098541259765625	0.97076416015625
587	0.96923828125	266.468886327231	0.00096649169921875	0.96832275390625
588	0.966796875	266.493286327169	0.00093780517578125	0.965576171875
589	0.96435546875	266.517686327108	0.00091583251953125	0.963134765625
590	0.9619140625	266.542086327046	0.0008935546875	0.9600830078125
591	0.95947265625	266.566486326984	0.000869140625	0.9588623046875
592	0.95703125	266.590886326923	0.00085113525390625	0.9564208984375
593	0.95458984375	266.615286326861	0.0008233642578125	0.9539794921875
594	0.9521484375	266.6396863268	0.00080841064453125	0.95123291015625
595	0.94970703125	266.664086326738	0.00078369140625	0.94940185546875
596	0.947265625	266.688486326676	0.0007666015625	0.946044921875
597	0.94482421875	266.712886326615	0.00074554443359375	0.9442138671875
598	0.9423828125	266.737286326553	0.000723876953125	0.94146728515625
599	0.93994140625	266.761686326491	0.00070892333984375	0.93902587890625
600	0.9375	266.78608632643	0.0006854248046875	0.9368896484375
601	0.93505859375	266.810486326368	0.00067352294921875	0.93414306640625
602	0.9326171875	266.834886326307	0.0006494140625	0.9320068359375
603	0.93017578125	266.859286326245	0.00063568115234375	0.92926025390625
604	0.927734375	266.883686326183	0.00061737060546875	0.9271240234375
605	0.92529296875	266.908086326122	0.00060028076171875	0.924072265625
606	0.9228515625	266.93248632606	0.00058624267578125	0.9222412109375
607	0.92041015625	266.956886325999	0.00056488037109375	0.91949462890625
608	0.91796875	266.981286325937	0.00055572509765625	0.916748046875
609	0.91552734375	267.005686325875	0.00053497314453125	0.9149169921875
610	0.9130859375	267.030086325814	0.00052520751953125	0.9124755859375
611	0.91064453125	267.054486325752	0.00050689697265625	0.90972900390625
612	0.908203125	267.078886325691	0.00049212646484375	0.9075927734375
613	0.90576171875	267.103286325629	0.000480560302734375	0.904541015625
614	0.9033203125	267.127686325567	0.0004630126953125	0.90179443359375
615	0.90087890625	267.152086325506	0.000455169677734375	0.89996337890625
616	0.8984375	267.176486325444	0.000434478759765625	0.89752197265625
617	0.89599609375	267.200886325383	0.000427490234375	0.89508056640625
618	0.8935546875	267.225286325321	0.00041168212890625	0.892333984375
619	0.89111328125	267.249686325259	0.00040081787109375	0.89019775390625
620	0.888671875	267.274086325198	0.000388916015625	0.887451171875
621	0.88623046875	267.298486325136	0.000373077392578125	0.8856201171875
622	0.8837890625	267.322886325075	0.000366943359375	0.88287353515625
623	0.88134765625	267.347286325013	0.000349853515625	0.8807373046875
624	0.87890625	267.371686324951	0.000345703125	0.87799072265625
625	0.87646484375	267.39608632489	0.00032867431640625	0.87615966796875
626	0.8740234375	267.420486324828	0.00032025146484375	0.8734130859375
627	0.87158203125	267.444886324767	0.000309783935546875	0.87127685546875
628	0.869140625	267.469286324705	0.00029718017578125	0.8685302734375
629	0.86669921875	267.493686324643	0.000291107177734375	0.86639404296875
630	0.8642578125	267.518086324582	0.00027386474609375	0.86334228515625
631	0.86181640625	267.54248632452	0.000271820068359375	0.8612060546875
632	0.859375	267.566886324459	0.00025677490234375	0.85845947265625
633	0.85693359375	267.591286324397	0.00025140380859375	0.85540771484375
634	0.8544921875	267.615686324335	0.00023956298828125	0.853271484375
635	0.85205078125	267.640086324274	0.000228912353515625	0.85113525390625
636	0.849609375	267.664486324212	0.000223785400390625	0.84869384765625
637	0.84716796875	267.688886324151	0.000209564208984375	0.8465576171875
638	0.8447265625	267.713286324089	0.00020819091796875	0.84381103515625
639	0.84228515625	267.737686324027	0.000192169189453125	0.841064453125
640	0.83984375	267.762086323966	0.000189422607421875	0.8392333984375
641	0.83740234375	267.786486323904	0.000178680419921875	0.83648681640625
642	0.8349609375	267.810886323843	0.000170867919921875	0.8343505859375
643	0.83251953125	267.835286323781	0.00016455078125	0.8319091796875
644	0.830078125	267.859686323719	0.00015106201171875	0.8294677734375
645	0.82763671875	267.884086323658	0.000150726318359375	0.826416015625
646	0.8251953125	267.908486323596	0.00013671875	0.823974609375
647	0.82275390625	267.932886323534	0.000135986328125	0.82183837890625
648	0.8203125	267.957286323473	0.000123626708984375	0.81939697265625
649	0.81787109375	267.981686323411	0.000117340087890625	0.8172607421875
650	0.8154296875	268.00608632335	0.000112060546875	0.8148193359375
651	0.81298828125	268.030486323288	0.000101470947265625	0.81207275390625
652	0.810546875	268.054886323226	0.000100616455078125	0.8099365234375
653	0.80810546875	268.079286323165	8.6212158203125E-05	0.80718994140625
654	0.8056640625	268.103686323103	8.6944580078125E-05	0.804443359375
655	0.80322265625	268.128086323042	7.586669921875E-05	0.8026123046875
656	0.80078125	268.15248632298	7.23876953125E-05	0.79986572265625
657	0.79833984375	268.176886322918	6.5155029296875E-05	0.79742431640625
658	0.7958984375	268.201286322857	5.5572509765625E-05	0.79498291015625
659	0.79345703125	268.225686322795	5.4840087890625E-05	0.792236328125
660	0.791015625	268.250086322734	4.256591796875E-05	0.79010009765625
661	0.78857421875	268.274486322672	4.46868896484375E-05	0.78826904296875
662	0.7861328125	268.29888632261	3.1585693359375E-05	0.78521728515625
663	0.78369140625	268.323286322549	2.9443359375E-05	0.7830810546875
664	0.78125	268.347686322487	2.29339599609375E-05	0.78033447265625
665	0.77880859375	268.372086322426	1.632080078125E-05	0.7781982421875
666	0.7763671875	268.396486322364	1.40960693359375E-05	0.775146484375
667	0.77392578125	268.420886322302	1.727294921875E-06	0.7733154296875
668	0.771484375	268.445286322241	4.1259765625E-06	0.77056884765625
669	0.76904296875	268.469686322179	-7.06787109375E-06	0.7684326171875
670	0.7666015625	268.494086322118	-6.915283203125E-06	0.7659912109375
671	0.76416015625	268.518486322056	-1.60400390625E-05	0.76324462890625
672	0.76171875	268.542886321994	-2.17803955078125E-05	0.7611083984375
673	0.75927734375	268.567286321933	-2.3712158203125E-05	0.75836181640625
674	0.7568359375	268.591686321871	-3.3465576171875E-05	0.75592041015625
675	0.75439453125	268.61608632181	-3.1292724609375E-05	0.7537841796875
676	0.751953125	268.640486321748	-4.42413330078125E-05	0.7513427734375
677	0.74951171875	268.664886321686	-4.24163818359375E-05	0.749420166015625
678	0.7470703125	268.689286321625	-5.0384521484375E-05	0.7469482421875
679	0.74462890625	268.713686321563	-5.3741455078125E-05	0.74444580078125
680	0.7421875	268.738086321502	-5.7586669921875E-05	0.74200439453125
681	0.73974609375	268.76248632144	-6.7108154296875E-05	0.739593505859375
682	0.7373046875	268.786886321378	-6.439208984375E-05	0.73712158203125
683	0.73486328125	268.811286321317	-7.562255859375E-05	0.734710693359375
684	0.732421875	268.835686321255	-7.2357177734375E-05	0.732330322265625
685	0.72998046875	268.860086321194	-8.2977294921875E-05	0.7298583984375
686	0.7275390625	268.884486321132	-8.4686279296875E-05	0.727447509765625
687	0.72509765625	268.90888632107	-8.8165283203125E-05	0.725006103515625
688	0.72265625	268.933286321009	-9.503173828125E-05	0.722564697265625
689	0.72021484375	268.957686320947	-9.381103515625E-05	0.72015380859375
690	0.7177734375	268.982086320886	-0.00010589599609375	0.717681884765625
691	0.71533203125	269.006486320824	-0.000101165771484375	0.715301513671875
692	0.712890625	269.030886320762	-0.000110626220703125	0.71282958984375
693	0.71044921875	269.055286320701	-0.000110321044921875	0.710479736328125
694	0.7080078125	269.079686320639	-0.00011651611328125	0.707977294921875
695	0.70556640625	269.104086320577	-0.00012249755859375	0.705535888671875
696	0.703125	269.128486320516	-0.00012115478515625	0.703125
697	0.70068359375	269.152886320454	-0.000130615234375	0.700714111328125
698	0.6982421875	269.177286320393	-0.00012628173828125	0.69830322265625
699	0.69580078125	269.201686320331	-0.0001378173828125	0.69580078125
700	0.693359375	269.226086320269	-0.000135894775390625	0.693359375
701	0.69091796875	269.250486320208	-0.000141387939453125	0.690887451171875
702	0.6884765625	269.274886320146	-0.00014483642578125	0.68853759765625
703	0.68603515625	269.299286320085	-0.000145355224609375	0.68609619140625
704	0.68359375	269.323686320023	-0.000155059814453125	0.68365478515625
705	0.68115234375	269.348086319961	-0.000150146484375	0.681182861328125
706	0.6787109375	269.3724863199	-0.00016021728515625	0.67877197265625
707	0.67626953125	269.396886319838	-0.000156402587890625	0.676361083984375
708	0.673828125	269.421286319777	-0.00016485595703125	0.673919677734375
709	0.67138671875	269.445686319715	-0.000167205810546875	0.671539306640625
710	0.6689453125	269.470086319653	-0.00016796875	0.6690673828125
711	0.66650390625	269.494486319592	-0.000175201416015625	0.666656494140625
712	0.6640625	269.51888631953	-0.00017144775390625	0.664215087890625
713	0.66162109375	269.543286319469	-0.00018304443359375	0.66180419921875
714	0.6591796875	269.567686319407	-0.000177886962890625	0.6593017578125
715	0.65673828125	269.592086319345	-0.00018560791015625	0.6568603515625
716	0.654296875	269.616486319284	-0.000185760498046875	0.6544189453125
717	0.65185546875	269.640886319222	-0.000188873291015625	0.6519775390625
718	0.6494140625	269.665286319161	-0.000195709228515625	0.649566650390625
719	0.64697265625	269.689686319099	-0.000192108154296875	0.64715576171875
720	0.64453125	269.714086319037	-0.0002015380859375	0.6446533203125
721	0.64208984375	269.738486318976	-0.00019561767578125	0.6422119140625
722	0.6396484375	269.762886318914	-0.000205291748046875	0.6397705078125
723	0.63720703125	269.787286318853	-0.00020416259765625	0.6373291015625
724	0.634765625	269.811686318791	-0.000207244873046875	0.634918212890625
725	0.63232421875	269.836086318729	-0.000211334228515625	0.63250732421875
726	0.6298828125	269.860486318668	-0.0002093505859375	0.63006591796875
727	0.62744140625	269.884886318606	-0.000219390869140625	0.62762451171875
728	0.625	269.909286318545	-0.0002130126953125	0.62518310546875
729	0.62255859375	269.933686318483	-0.000221710205078125	0.62274169921875
730	0.6201171875	269.958086318421	-0.00021832275390625	0.620269775390625
731	0.61767578125	269.98248631836	-0.00022406005859375	0.61785888671875
732	0.615234375	270.006886318298	-0.0002274169921875	0.61541748046875
733	0.61279296875	270.031286318237	-0.0002257080078125	0.613037109375
734	0.6103515625	270.055686318175	-0.0002330322265625	0.610565185546875
735	0.60791015625	270.080086318113	-0.000227264404296875	0.608123779296875
736	0.60546875	270.104486318052	-0.000237640380859375	0.60565185546875
737	0.60302734375	270.12888631799	-0.000232818603515625	0.603240966796875
738	0.6005859375	270.153286317929	-0.000238037109375	0.600830078125
739	0.59814453125	270.177686317867	-0.000238616943359375	0.598358154296875
740	0.595703125	270.202086317805	-0.0002392578125	0.595916748046875
741	0.59326171875	270.226486317744	-0.0002467041015625	0.59356689453125
742	0.5908203125	270.250886317682	-0.000240692138671875	0.591033935546875
743	0.58837890625	270.27528631762	-0.0002493896484375	0.58868408203125
744	0.5859375	270.299686317559	-0.000243133544921875	0.586212158203125
745	0.58349609375	270.324086317497	-0.000251068115234375	0.583770751953125
746	0.5810546875	270.348486317436	-0.000250732421875	0.581329345703125
747	0.57861328125	270.372886317374	-0.000251190185546875	0.578826904296875
748	0.576171875	270.397286317312	-0.000255828857421875	0.576507568359375
749	0.57373046875	270.421686317251	-0.000251739501953125	0.5740966796875
750	0.5712890625	270.446086317189	-0.000261810302734375	0.571563720703125
751	0.56884765625	270.470486317128	-0.00025457763671875	0.569122314453125
752	0.56640625	270.494886317066	-0.000261810302734375	0.566680908203125
753	0.56396484375	270.519286317004	-0.000259307861328125	0.564239501953125
754	0.5615234375	270.543686316943	-0.000262451171875	0.561798095703125
755	0.55908203125	270.568086316881	-0.00026654052734375	0.559417724609375
756	0.556640625	270.59248631682	-0.000262664794921875	0.55694580078125
757	0.55419921875	270.616886316758	-0.00027032470703125	0.554534912109375
758	0.5517578125	270.641286316696	-0.000263336181640625	0.552093505859375
759	0.54931640625	270.665686316635	-0.000272735595703125	0.549560546875
760	0.546875	270.690086316573	-0.000269134521484375	0.5472412109375
761	0.54443359375	270.714486316512	-0.000272125244140625	0.544708251953125
762	0.5419921875	270.73888631645	-0.000273895263671875	0.542327880859375
763	0.53955078125	270.763286316388	-0.000272247314453125	0.539825439453125
764	0.537109375	270.787686316327	-0.00028045654296875	0.53741455078125
765	0.53466796875	270.812086316265	-0.000273284912109375	0.535003662109375
766	0.5322265625	270.836486316204	-0.00028155517578125	0.53253173828125
767	0.52978515625	270.860886316142	-0.000276153564453125	0.5301513671875
768	0.52734375	270.88528631608	-0.00028216552734375	0.5277099609375
769	0.52490234375	270.909686316019	-0.000283416748046875	0.5252685546875
770	0.5224609375	270.934086315957	-0.00028192138671875	0.5228271484375
771	0.52001953125	270.958486315896	-0.00028759765625	0.520416259765625
772	0.517578125	270.982886315834	-0.00028155517578125	0.517913818359375
773	0.51513671875	271.007286315772	-0.000291473388671875	0.5155029296875
774	0.5126953125	271.031686315711	-0.0002847900390625	0.51312255859375
775	0.51025390625	271.056086315649	-0.00029034423828125	0.5106201171875
776	0.5078125	271.080486315588	-0.0002890625	0.508148193359375
777	0.50537109375	271.104886315526	-0.0002901611328125	0.505706787109375
778	0.5029296875	271.129286315464	-0.00029559326171875	0.5032958984375
779	0.50048828125	271.153686315403	-0.00028973388671875	0.5008544921875
780	0.498046875	271.178086315341	-0.000297607421875	0.498382568359375
781	0.49560546875	271.20248631528	-0.000290252685546875	0.49603271484375
782	0.4931640625	271.226886315218	-0.00029840087890625	0.493499755859375
783	0.49072265625	271.251286315156	-0.00029608154296875	0.4910888671875
784	0.48828125	271.275686315095	-0.00029730224609375	0.4886474609375
785	0.48583984375	271.300086315033	-0.0003001708984375	0.486297607421875
786	0.4833984375	271.324486314972	-0.000296600341796875	0.48333740234375
787	0.48095703125	271.34888631491	-0.0003055419921875	0.480987548828125
788	0.478515625	271.373286314848	-0.000297760009765625	0.478607177734375
789	0.47607421875	271.397686314787	-0.00030474853515625	0.4761962890625
790	0.4736328125	271.422086314725	-0.000300384521484375	0.473724365234375
791	0.47119140625	271.446486314664	-0.00030426025390625	0.471221923828125
792	0.46875	271.470886314602	-0.000306671142578125	0.46881103515625
793	0.46630859375	271.49528631454	-0.00030316162109375	0.46636962890625
794	0.4638671875	271.519686314479	-0.0003096923828125	0.463897705078125
795	0.46142578125	271.544086314417	-0.0003026123046875	0.461456298828125
796	0.458984375	271.568486314355	-0.000311767578125	0.459014892578125
797	0.45654296875	271.592886314294	-0.000306365966796875	0.456573486328125
798	0.4541015625	271.617286314232	-0.00030999755859375	0.4541015625
799	0.45166015625	271.641686314171	-0.00031036376953125	0.45172119140625
800	0.44921875	271.666086314109	-0.0003095703125	0.449249267578125
801	0.44677734375	271.690486314047	-0.000316131591796875	0.44683837890625
802	0.4443359375	271.714886313986	-0.000309173583984375	0.444366455078125
803	0.44189453125	271.739286313924	-0.0003170166015625	0.44195556640625
804	0.439453125	271.763686313863	-0.00031024169921875	0.43951416015625
805	0.43701171875	271.788086313801	-0.000317169189453125	0.43707275390625
806	0.4345703125	271.812486313739	-0.00031658935546875	0.434600830078125
807	0.43212890625	271.836886313678	-0.000316009521484375	0.432159423828125
808	0.4296875	271.861286313616	-0.000320343017578125	0.429779052734375
809	0.42724609375	271.885686313555	-0.000314910888671875	0.42730712890625
810	0.4248046875	271.910086313493	-0.000324310302734375	0.42486572265625
811	0.42236328125	271.934486313431	-0.000316619873046875	0.42236328125
812	0.419921875	271.95888631337	-0.000322906494140625	0.419952392578125
813	0.41748046875	271.983286313308	-0.000319915771484375	0.41754150390625
814	0.4150390625	272.007686313247	-0.000322021484375	0.415130615234375
815	0.41259765625	272.032086313185	-0.000326141357421875	0.41265869140625
816	0.41015625	272.056486313123	-0.00032098388671875	0.410186767578125
817	0.40771484375	272.080886313062	-0.000328033447265625	0.40777587890625
818	0.4052734375	272.105286313	-0.00032000732421875	0.4052734375
819	0.40283203125	272.129686312939	-0.000328704833984375	0.40283203125
820	0.400390625	272.154086312877	-0.000324737548828125	0.400421142578125
821	0.39794921875	272.178486312815	-0.0003267822265625	0.39801025390625
822	0.3955078125	272.202886312754	-0.000328338623046875	0.395599365234375
823	0.39306640625	272.227286312692	-0.000325531005859375	0.393096923828125
824	0.390625	272.251686312631	-0.000333343505859375	0.39068603515625
825	0.38818359375	272.276086312569	-0.00032513427734375	0.388275146484375
826	0.3857421875	272.300486312507	-0.00033245849609375	0.38580322265625
827	0.38330078125	272.324886312446	-0.000326446533203125	0.38336181640625
828	0.380859375	272.349286312384	-0.00033148193359375	0.38092041015625
829	0.37841796875	272.373686312323	-0.00033209228515625	0.378509521484375
830	0.3759765625	272.398086312261	-0.0003294677734375	0.3760986328125
831	0.37353515625	272.422486312199	-0.0003348388671875	0.37359619140625
832	0.37109375	272.446886312138	-0.000327789306640625	0.37115478515625
833	0.36865234375	272.471286312076	-0.000337310791015625	0.368743896484375
834	0.3662109375	272.495686312015	-0.000330047607421875	0.366302490234375
835	0.36376953125	272.520086311953	-0.000334808349609375	0.363800048828125
836	0.361328125	272.544486311891	-0.00033319091796875	0.36138916015625
837	0.35888671875	272.56888631183	-0.00033331298828125	0.35894775390625
838	0.3564453125	272.593286311768	-0.000338653564453125	0.35650634765625
839	0.35400390625	272.617686311707	-0.000332000732421875	0.35406494140625
840	0.3515625	272.642086311645	-0.0003394775390625	0.3516845703125
841	0.34912109375	272.666486311583	-0.00033148193359375	0.34918212890625
842	0.3466796875	272.690886311522	-0.00033929443359375	0.34674072265625
843	0.34423828125	272.71528631146	-0.000336669921875	0.344329833984375
844	0.341796875	272.739686311398	-0.00033709716796875	0.341796875
845	0.33935546875	272.764086311337	-0.000339874267578125	0.339385986328125
846	0.3369140625	272.788486311275	-0.000335235595703125	0.336944580078125
847	0.33447265625	272.812886311214	-0.000343994140625	0.334564208984375
848	0.33203125	272.837286311152	-0.000335418701171875	0.33209228515625
849	0.32958984375	272.86168631109	-0.0003421630859375	0.3297119140625
850	0.3271484375	272.886086311029	-0.000337371826171875	0.327239990234375
851	0.32470703125	272.910486310967	-0.0003409423828125	0.324737548828125
852	0.322265625	272.934886310906	-0.000343109130859375	0.322357177734375
853	0.31982421875	272.959286310844	-0.000338958740234375	0.319854736328125
854	0.3173828125	272.983686310782	-0.00034515380859375	0.317474365234375
855	0.31494140625	273.008086310721	-0.00033721923828125	0.31500244140625
856	0.3125	273.032486310659	-0.00034619140625	0.312530517578125
857	0.31005859375	273.056886310598	-0.000340057373046875	0.31011962890625
858	0.3076171875	273.081286310536	-0.0003433837890625	0.30767822265625
859	0.30517578125	273.105686310474	-0.000343017578125	0.305206298828125
860	0.302734375	273.130086310413	-0.000341522216796875	0.302764892578125
861	0.30029296875	273.154486310351	-0.0003480224609375	0.300323486328125
862	0.2978515625	273.17888631029	-0.000340087890625	0.29791259765625
863	0.29541015625	273.203286310228	-0.00034765625	0.295440673828125
864	0.29296875	273.227686310166	-0.000340087890625	0.29302978515625
865	0.29052734375	273.252086310105	-0.000346710205078125	0.29058837890625
866	0.2880859375	273.276486310043	-0.0003453369140625	0.288177490234375
867	0.28564453125	273.300886309982	-0.00034405517578125	0.285736083984375
868	0.283203125	273.32528630992	-0.000348114013671875	0.283294677734375
869	0.28076171875	273.349686309858	-0.000342010498046875	0.28082275390625
870	0.2783203125	273.374086309797	-0.000351104736328125	0.2784423828125
871	0.27587890625	273.398486309735	-0.000342742919921875	0.275909423828125
872	0.2734375	273.422886309674	-0.000348541259765625	0.2735595703125
873	0.27099609375	273.447286309612	-0.000345123291015625	0.27105712890625
874	0.2685546875	273.47168630955	-0.00034686279296875	0.26861572265625
875	0.26611328125	273.496086309489	-0.000350372314453125	0.26617431640625
876	0.263671875	273.520486309427	-0.000344757080078125	0.26373291015625
877	0.26123046875	273.544886309366	-0.0003516845703125	0.261322021484375
878	0.2587890625	273.569286309304	-0.000343109130859375	0.258880615234375
879	0.25634765625	273.593686309242	-0.000351654052734375	0.25640869140625
880	0.25390625	273.618086309181	-0.000346923828125	0.25396728515625
881	0.25146484375	273.642486309119	-0.000348846435546875	0.25152587890625
882	0.2490234375	273.666886309058	-0.0003497314453125	0.24908447265625
883	0.24658203125	273.691286308996	-0.000346466064453125	0.24664306640625
884	0.244140625	273.715686308934	-0.000353851318359375	0.24420166015625
885	0.24169921875	273.740086308873	-0.000345245361328125	0.241790771484375
886	0.2392578125	273.764486308811	-0.000352447509765625	0.239349365234375
887	0.23681640625	273.78888630875	-0.00034576416015625	0.236907958984375
888	0.234375	273.813286308688	-0.000350860595703125	0.2344970703125
889	0.23193359375	273.837686308626	-0.00035101318359375	0.23199462890625
890	0.2294921875	273.862086308565	-0.000348419189453125	0.2296142578125
891	0.22705078125	273.886486308503	-0.00035333251953125	0.227142333984375
892	0.224609375	273.910886308441	-0.00034613037109375	0.224700927734375
893	0.22216796875	273.93528630838	-0.000355377197265625	0.2222900390625
894	0.2197265625	273.959686308318	-0.00034747314453125	0.2198486328125
895	0.21728515625	273.984086308257	-0.00035205078125	0.21734619140625
896	0.21484375	274.008486308195	-0.000349822998046875	0.21490478515625
897	0.21240234375	274.032886308133	-0.00035009765625	0.21246337890625
898	0.2099609375	274.057286308072	-0.00035491943359375	0.21002197265625
899	0.20751953125	274.08168630801	-0.0003480224609375	0.207611083984375
900	0.205078125	274.106086307949	-0.00035540771484375	0.2052001953125
901	0.20263671875	274.130486307887	-0.000346832275390625	0.202728271484375
902	0.2001953125	274.154886307825	-0.00035443115234375	0.200286865234375
903	0.19775390625	274.179286307764	-0.000351043701171875	0.19781494140625
904	0.1953125	274.203686307702	-0.0003514404296875	0.19537353515625
905	0.19287109375	274.228086307641	-0.000353607177734375	0.192962646484375
906	0.1904296875	274.252486307579	-0.000348968505859375	0.19049072265625
907	0.18798828125	274.276886307517	-0.000357269287109375	0.188079833984375
908	0.185546875	274.301286307456	-0.0003482666015625	0.18560791015625
909	0.18310546875	274.325686307394	-0.000354949951171875	0.1832275390625
910	0.1806640625	274.350086307333	-0.000349639892578125	0.180755615234375
911	0.17822265625	274.374486307271	-0.000353240966796875	0.178375244140625
912	0.17578125	274.398886307209	-0.000354766845703125	0.17584228515625
913	0.17333984375	274.423286307148	-0.0003507080078125	0.173431396484375
914	0.1708984375	274.447686307086	-0.000356658935546875	0.1710205078125
915	0.16845703125	274.472086307025	-0.00034844970703125	0.16851806640625
916	0.166015625	274.496486306963	-0.000357513427734375	0.1661376953125
917	0.16357421875	274.520886306901	-0.000350677490234375	0.163665771484375
918	0.1611328125	274.54528630684	-0.000354248046875	0.1612548828125
919	0.15869140625	274.569686306778	-0.000353271484375	0.15875244140625
920	0.15625	274.594086306717	-0.00035186767578125	0.15631103515625
921	0.15380859375	274.618486306655	-0.000357879638671875	0.153900146484375
922	0.1513671875	274.642886306593	-0.00035003662109375	0.15142822265625
923	0.14892578125	274.667286306532	-0.00035748291015625	0.149017333984375
924	0.146484375	274.69168630647	-0.000349365234375	0.1466064453125
925	0.14404296875	274.716086306409	-0.000356170654296875	0.1441650390625
926	0.1416015625	274.740486306347	-0.0003543701171875	0.1417236328125
927	0.13916015625	274.764886306285	-0.000353485107421875	0.139251708984375
928	0.13671875	274.789286306224	-0.00035687255859375	0.136810302734375
929	0.13427734375	274.813686306162	-0.00035101318359375	0.134368896484375
930	0.1318359375	274.838086306101	-0.000360137939453125	0.1319580078125
931	0.12939453125	274.862486306039	-0.000351287841796875	0.129486083984375
932	0.126953125	274.886886305977	-0.00035736083984375	0.12701416015625
933	0.12451171875	274.911286305916	-0.00035333251953125	0.124603271484375
934	0.1220703125	274.935686305854	-0.000355560302734375	0.122222900390625
935	0.11962890625	274.960086305793	-0.000358428955078125	0.119720458984375
936	0.1171875	274.984486305731	-0.00035308837890625	0.1173095703125
937	0.11474609375	275.008886305669	-0.000359710693359375	0.114898681640625
938	0.1123046875	275.033286305608	-0.00035113525390625	0.112457275390625
939	0.10986328125	275.057686305546	-0.00035980224609375	0.109954833984375
940	0.107421875	275.082086305484	-0.000354278564453125	0.107513427734375
941	0.10498046875	275.106486305423	-0.0003565673828125	0.105072021484375
942	0.1025390625	275.130886305361	-0.00035693359375	0.102691650390625
943	0.10009765625	275.1552863053	-0.000354217529296875	0.1002197265625
944	0.09765625	275.179686305238	-0.00036126708984375	0.097808837890625
945	0.09521484375	275.204086305176	-0.000352691650390625	0.095306396484375
946	0.0927734375	275.228486305115	-0.000360015869140625	0.09283447265625
947	0.09033203125	275.252886305053	-0.000352813720703125	0.09039306640625
948	0.087890625	275.277286304992	-0.00035845947265625	0.08795166015625
949	0.08544921875	275.30168630493	-0.000357879638671875	0.085540771484375
950	0.0830078125	275.326086304868	-0.00035577392578125	0.083099365234375
951	0.08056640625	275.350486304807	-0.00036041259765625	0.080596923828125
952	0.078125	275.374886304745	-0.00035357666015625	0.0782470703125
953	0.07568359375	275.399286304684	-0.00036297607421875	0.0758056640625
954	0.0732421875	275.423686304622	-0.00035479736328125	0.07330322265625
955	0.07080078125	275.44808630456	-0.000360107421875	0.0709228515625
956	0.068359375	275.472486304499	-0.0003572998046875	0.0684814453125
957	0.06591796875	275.496886304437	-0.0003582763671875	0.0660400390625
958	0.0634765625	275.521286304376	-0.000362579345703125	0.0635986328125
959	0.06103515625	275.545686304314	-0.0003563232421875	0.061126708984375
960	0.05859375	275.570086304252	-0.00036376953125	0.058685302734375
961	0.05615234375	275.594486304191	-0.000355072021484375	0.056304931640625
962	0.0537109375	275.618886304129	-0.000363433837890625	0.053741455078125
963	0.05126953125	275.643286304068	-0.000359375	0.05133056640625
964	0.048828125	275.667686304006	-0.000360595703125	0.0489776611328125
965	0.04638671875	275.692086303944	-0.00036212158203125	0.046551513671875
966	0.0439453125	275.716486303883	-0.000358367919921875	0.0441070556640625
967	0.04150390625	275.740886303821	-0.0003663330078125	0.0416839599609375
968	0.0390625	275.76528630376	-0.000357452392578125	0.0392242431640625
969	0.03662109375	275.789686303698	-0.000364593505859375	0.03677978515625
970	0.0341796875	275.814086303636	-0.000358306884765625	0.0343414306640625
971	0.03173828125	275.838486303575	-0.000363128662109375	0.0319244384765625
972	0.029296875	275.862886303513	-0.000363616943359375	0.0294525146484375
973	0.02685546875	275.887286303452	-0.000360443115234375	0.027001953125
974	0.0244140625	275.91168630339	-0.00036578369140625	0.024591064453125
975	0.02197265625	275.936086303328	-0.00035809326171875	0.022119140625
976	0.01953125	275.960486303267	-0.000367462158203125	0.0197174072265625
977	0.01708984375	275.984886303205	-0.000359619140625	0.0172515869140625
978	0.0146484375	276.009286303144	-0.0003641357421875	0.0148223876953125
979	0.01220703125	276.033686303082	-0.0003621826171875	0.012384033203125
980	0.009765625	276.05808630302	-0.0003619384765625	0.0099334716796875
981	0.00732421875	276.082486302959	-0.000367095947265625	0.00750732421875
982	0.0048828125	276.106886302897	-0.00035980224609375	0.005035400390625
983	0.00244140625	276.131286302836	-0.0003673095703125	0.00263061523437499
984	0	276.155686302774	-0.000358642578125	0.0001678466796875
985	0.00244140625	276.180086302712	-0.000365814208984375	0.00260009765624999
986	0.0048828125	276.204486302651	-0.0003623046875	0.0050323486328125
987	0.00732421875	276.228886302589	-0.00036199951171875	0.0074798583984375
988	0.009765625	276.253286302527	-0.0003641357421875	0.00992431640624999
989	0.01220703125	276.277686302466	-0.000358734130859375	0.01236572265625
990	0.0146484375	276.302086302404	-0.000366912841796875	0.0148284912109375
991	0.01708984375	276.326486302343	-0.000357513427734375	0.0172393798828125
992	0.01953125	276.350886302281	-0.0003638916015625	0.0197021484375
993	0.02197265625	276.375286302219	-0.000358367919921875	0.02213134765625
