Index	Potential applied (V)	Time (s)	WE(1).Current (A)	WE(1).Potential (V)
1	0.00244140625	6.68994298310952	-0.0003831787109375	0.0026214599609375
2	0.0048828125	6.71434298304791	-0.000382537841796875	0.0050506591796875
3	0.00732421875	6.73874298298631	-0.000387603759765625	0.00750732421875
4	0.009765625	6.76314298292471	-0.000379547119140625	0.00992736816406251
5	0.01220703125	6.7875429828631	-0.000387176513671875	0.0123779296875
6	0.0146484375	6.8119429828015	-0.000377777099609375	0.014813232421875
7	0.01708984375	6.83634298273989	-0.000385589599609375	0.017242431640625
8	0.01953125	6.86074298267829	-0.00038189697265625	0.0196929931640625
9	0.02197265625	6.88514298261669	-0.000381988525390625	0.022119140625
10	0.0244140625	6.90954298255508	-0.000384246826171875	0.0245819091796875
11	0.02685546875	6.93394298249348	-0.00037896728515625	0.02701416015625
12	0.029296875	6.95834298243187	-0.000387603759765625	0.029461669921875
13	0.03173828125	6.98274298237027	-0.000377716064453125	0.0318939208984375
14	0.0341796875	7.00714298230866	-0.000384613037109375	0.03433837890625
15	0.03662109375	7.03154298224706	-0.00037847900390625	0.036773681640625
16	0.0390625	7.05594298218546	-0.0003822021484375	0.0392333984375
17	0.04150390625	7.08034298212385	-0.00038323974609375	0.041650390625
18	0.0439453125	7.10474298206225	-0.000378753662109375	0.0440948486328125
19	0.04638671875	7.12914298200064	-0.000384429931640625	0.0465667724609375
20	0.048828125	7.15354298193904	-0.000375518798828125	0.048974609375
21	0.05126953125	7.17794298187744	-0.00038482666015625	0.0513916015625
22	0.0537109375	7.20234298181583	-0.00037701416015625	0.0538330078125
23	0.05615234375	7.22674298175423	-0.000380584716796875	0.0562744140625
24	0.05859375	7.25114298169262	-0.000378997802734375	0.058746337890625
25	0.06103515625	7.27554298163102	-0.00037762451171875	0.0611572265625
26	0.0634765625	7.29994298156942	-0.000383270263671875	0.0635986328125
27	0.06591796875	7.32434298150781	-0.000374847412109375	0.06610107421875
28	0.068359375	7.34874298144621	-0.0003824462890625	0.068511962890625
29	0.07080078125	7.3731429813846	-0.000373321533203125	0.0709228515625
30	0.0732421875	7.397542981323	-0.0003804931640625	0.0733642578125
31	0.07568359375	7.4219429812614	-0.000377471923828125	0.07574462890625
32	0.078125	7.44634298119979	-0.000376739501953125	0.078216552734375
33	0.08056640625	7.47074298113819	-0.0003795166015625	0.080718994140625
34	0.0830078125	7.49514298107658	-0.0003736572265625	0.083099365234375
35	0.08544921875	7.51954298101498	-0.000382537841796875	0.085540771484375
36	0.087890625	7.54394298095337	-0.000372772216796875	0.087982177734375
37	0.09033203125	7.56834298089177	-0.000379364013671875	0.0904541015625
38	0.0927734375	7.59274298083017	-0.000373931884765625	0.0928955078125
39	0.09521484375	7.61714298076856	-0.000376922607421875	0.0953369140625
40	0.09765625	7.64154298070696	-0.000378814697265625	0.097808837890625
41	0.10009765625	7.66594298064535	-0.000373687744140625	0.100189208984375
42	0.1025390625	7.69034298058375	-0.000379974365234375	0.102691650390625
43	0.10498046875	7.71474298052215	-0.00037078857421875	0.105133056640625
44	0.107421875	7.73914298046054	-0.000379852294921875	0.107574462890625
45	0.10986328125	7.76354298039894	-0.000372650146484375	0.109954833984375
46	0.1123046875	7.78794298033733	-0.000375885009765625	0.112396240234375
47	0.11474609375	7.81234298027573	-0.00037493896484375	0.11480712890625
48	0.1171875	7.83674298021413	-0.00037298583984375	0.117340087890625
49	0.11962890625	7.86114298015252	-0.00037921142578125	0.1197509765625
50	0.1220703125	7.88554298009092	-0.000370513916015625	0.122222900390625
51	0.12451171875	7.90994298002931	-0.0003780517578125	0.124664306640625
52	0.126953125	7.93434297996771	-0.000369293212890625	0.1270751953125
53	0.12939453125	7.95874297990611	-0.000375946044921875	0.1295166015625
54	0.1318359375	7.9831429798445	-0.000373626708984375	0.1319580078125
55	0.13427734375	8.0075429797829	-0.000372222900390625	0.134368896484375
56	0.13671875	8.03194297972129	-0.00037548828125	0.136810302734375
57	0.13916015625	8.05634297965969	-0.00036883544921875	0.1392822265625
58	0.1416015625	8.08074297959809	-0.00037774658203125	0.141754150390625
59	0.14404296875	8.10514297953648	-0.0003680419921875	0.144073486328125
60	0.146484375	8.12954297947488	-0.0003741455078125	0.1466064453125
61	0.14892578125	8.15394297941327	-0.000369384765625	0.149017333984375
62	0.1513671875	8.17834297935167	-0.000371551513671875	0.151519775390625
63	0.15380859375	8.20274297929006	-0.000374114990234375	0.1539306640625
64	0.15625	8.22714297922846	-0.000368316650390625	0.15631103515625
65	0.15869140625	8.25154297916686	-0.000374847412109375	0.158782958984375
66	0.1611328125	8.27594297910525	-0.00036553955078125	0.16131591796875
67	0.16357421875	8.30034297904365	-0.000374267578125	0.1636962890625
68	0.166015625	8.32474297898204	-0.000367919921875	0.1661376953125
69	0.16845703125	8.34914297892044	-0.00037030029296875	0.168548583984375
70	0.1708984375	8.37354297885884	-0.0003699951171875	0.170989990234375
71	0.17333984375	8.39794297879723	-0.000367156982421875	0.173370361328125
72	0.17578125	8.42234297873563	-0.000373931884765625	0.175933837890625
73	0.17822265625	8.44674297867402	-0.0003648681640625	0.178375244140625
74	0.1806640625	8.47114297861242	-0.000372222900390625	0.1807861328125
75	0.18310546875	8.49554297855082	-0.000364105224609375	0.183197021484375
76	0.185546875	8.51994297848921	-0.000370086669921875	0.18560791015625
77	0.18798828125	8.54434297842761	-0.00036859130859375	0.18804931640625
78	0.1904296875	8.568742978366	-0.00036651611328125	0.19049072265625
79	0.19287109375	8.5931429783044	-0.0003704833984375	0.193023681640625
80	0.1953125	8.6175429782428	-0.0003634033203125	0.195343017578125
81	0.19775390625	8.64194297818119	-0.00037255859375	0.19781494140625
82	0.2001953125	8.66634297811959	-0.0003634033203125	0.20025634765625
83	0.20263671875	8.69074297805798	-0.000368865966796875	0.20269775390625
84	0.205078125	8.71514297799638	-0.000364898681640625	0.205169677734375
85	0.20751953125	8.73954297793478	-0.0003662109375	0.2076416015625
86	0.2099609375	8.76394297787317	-0.000369537353515625	0.210052490234375
87	0.21240234375	8.78834297781157	-0.000363067626953125	0.212432861328125
88	0.21484375	8.81274297774996	-0.00037005615234375	0.21490478515625
89	0.21728515625	8.83714297768836	-0.00036077880859375	0.217376708984375
90	0.2197265625	8.86154297762675	-0.00036920166015625	0.219757080078125
91	0.22216796875	8.88594297756515	-0.000363861083984375	0.22222900390625
92	0.224609375	8.91034297750355	-0.000365447998046875	0.22467041015625
93	0.22705078125	8.93474297744194	-0.000366058349609375	0.227081298828125
94	0.2294921875	8.95914297738034	-0.00036248779296875	0.2296142578125
95	0.23193359375	8.98354297731873	-0.00036981201171875	0.2320556640625
96	0.234375	9.00794297725713	-0.000360565185546875	0.234405517578125
97	0.23681640625	9.03234297719553	-0.00036773681640625	0.23687744140625
98	0.2392578125	9.05674297713392	-0.000360321044921875	0.239349365234375
99	0.24169921875	9.08114297707232	-0.000365234375	0.24176025390625
100	0.244140625	9.10554297701071	-0.000364715576171875	0.244171142578125
101	0.24658203125	9.12994297694911	-0.000361907958984375	0.246673583984375
102	0.2490234375	9.15434297688751	-0.0003665771484375	0.2491455078125
103	0.25146484375	9.1787429768259	-0.0003587646484375	0.2515869140625
104	0.25390625	9.2031429767643	-0.000368133544921875	0.253997802734375
105	0.25634765625	9.22754297670269	-0.000359344482421875	0.256439208984375
106	0.2587890625	9.25194297664109	-0.000364227294921875	0.258880615234375
107	0.26123046875	9.27634297657949	-0.0003612060546875	0.261260986328125
108	0.263671875	9.30074297651788	-0.000361572265625	0.26373291015625
109	0.26611328125	9.32514297645628	-0.00036578369140625	0.266143798828125
110	0.2685546875	9.34954297639467	-0.00035870361328125	0.26861572265625
111	0.27099609375	9.37394297633307	-0.00036602783203125	0.271087646484375
112	0.2734375	9.39834297627146	-0.000356719970703125	0.2735595703125
113	0.27587890625	9.42274297620986	-0.00036474609375	0.275909423828125
114	0.2783203125	9.44714297614826	-0.000360382080078125	0.278350830078125
115	0.28076171875	9.47154297608665	-0.000361236572265625	0.280792236328125
116	0.283203125	9.49594297602505	-0.0003626708984375	0.283294677734375
117	0.28564453125	9.52034297596344	-0.0003582763671875	0.285736083984375
118	0.2880859375	9.54474297590184	-0.0003663330078125	0.28814697265625
119	0.29052734375	9.56914297584024	-0.00035693359375	0.2906494140625
120	0.29296875	9.59354297577863	-0.000363983154296875	0.2930908203125
121	0.29541015625	9.61794297571703	-0.00035748291015625	0.29547119140625
122	0.2978515625	9.64234297565542	-0.00036181640625	0.2979736328125
123	0.30029296875	9.66674297559382	-0.000362396240234375	0.300384521484375
124	0.302734375	9.69114297553222	-0.00035894775390625	0.30279541015625
125	0.30517578125	9.71554297547061	-0.00036431884765625	0.305206298828125
126	0.3076171875	9.73994297540901	-0.000356048583984375	0.30767822265625
127	0.31005859375	9.7643429753474	-0.000365509033203125	0.31011962890625
128	0.3125	9.7887429752858	-0.000357177734375	0.312591552734375
129	0.31494140625	9.8131429752242	-0.000361663818359375	0.314971923828125
130	0.3173828125	9.83754297516259	-0.00035955810546875	0.3175048828125
131	0.31982421875	9.86194297510099	-0.00035906982421875	0.319976806640625
132	0.322265625	9.88634297503938	-0.000364349365234375	0.322357177734375
133	0.32470703125	9.91074297497778	-0.000356658935546875	0.32476806640625
134	0.3271484375	9.93514297491618	-0.000364105224609375	0.3272705078125
135	0.32958984375	9.95954297485457	-0.000354888916015625	0.32965087890625
136	0.33203125	9.98394297479297	-0.000362396240234375	0.33209228515625
137	0.33447265625	10.0083429747314	-0.000358673095703125	0.33453369140625
138	0.3369140625	10.0327429746698	-0.00035858154296875	0.336883544921875
139	0.33935546875	10.0571429746082	-0.000360870361328125	0.339447021484375
140	0.341796875	10.0815429745466	-0.000355316162109375	0.341827392578125
141	0.34423828125	10.1059429744849	-0.0003636474609375	0.344329833984375
142	0.3466796875	10.1303429744233	-0.000353729248046875	0.3468017578125
143	0.34912109375	10.1547429743617	-0.000360260009765625	0.34918212890625
144	0.3515625	10.1791429743001	-0.000354156494140625	0.351593017578125
145	0.35400390625	10.2035429742385	-0.000357421875	0.35406494140625
146	0.3564453125	10.2279429741769	-0.00035870361328125	0.356475830078125
147	0.35888671875	10.2523429741153	-0.000353790283203125	0.35894775390625
148	0.361328125	10.2767429740537	-0.0003594970703125	0.3614501953125
149	0.36376953125	10.3011429739921	-0.000350494384765625	0.36383056640625
150	0.3662109375	10.3255429739305	-0.0003594970703125	0.366241455078125
151	0.36865234375	10.3499429738689	-0.000351898193359375	0.368743896484375
152	0.37109375	10.3743429738073	-0.00035504150390625	0.37115478515625
153	0.37353515625	10.3987429737457	-0.000353515625	0.3736572265625
154	0.3759765625	10.4231429736841	-0.00035174560546875	0.376068115234375
155	0.37841796875	10.4475429736225	-0.000357330322265625	0.378509521484375
156	0.380859375	10.4719429735609	-0.000348724365234375	0.38092041015625
157	0.38330078125	10.4963429734993	-0.000355926513671875	0.383331298828125
158	0.3857421875	10.5207429734377	-0.000347015380859375	0.385772705078125
159	0.38818359375	10.5451429733761	-0.000353668212890625	0.388214111328125
160	0.390625	10.5695429733145	-0.000350616455078125	0.39068603515625
161	0.39306640625	10.5939429732529	-0.000349395751953125	0.39312744140625
162	0.3955078125	10.6183429731913	-0.000352294921875	0.395538330078125
163	0.39794921875	10.6427429731297	-0.000345733642578125	0.398040771484375
164	0.400390625	10.6671429730681	-0.000354217529296875	0.40045166015625
165	0.40283203125	10.6915429730064	-0.00034454345703125	0.40289306640625
166	0.4052734375	10.7159429729448	-0.00035052490234375	0.405364990234375
167	0.40771484375	10.7403429728832	-0.000345123291015625	0.40777587890625
168	0.41015625	10.7647429728216	-0.000347076416015625	0.410247802734375
169	0.41259765625	10.78914297276	-0.000348876953125	0.4127197265625
170	0.4150390625	10.8135429726984	-0.0003431396484375	0.41510009765625
171	0.41748046875	10.8379429726368	-0.000349151611328125	0.4176025390625
172	0.419921875	10.8623429725752	-0.000339599609375	0.419952392578125
173	0.42236328125	10.8867429725136	-0.00034808349609375	0.42242431640625
174	0.4248046875	10.911142972452	-0.000341033935546875	0.42486572265625
175	0.42724609375	10.9355429723904	-0.0003431396484375	0.42718505859375
176	0.4296875	10.9599429723288	-0.000342315673828125	0.429718017578125
177	0.43212890625	10.9843429722672	-0.0003394775390625	0.43212890625
178	0.4345703125	11.0087429722056	-0.0003455810546875	0.43463134765625
179	0.43701171875	11.033142972144	-0.000336029052734375	0.43707275390625
180	0.439453125	11.0575429720824	-0.000343017578125	0.439483642578125
181	0.44189453125	11.0819429720208	-0.0003341064453125	0.441925048828125
182	0.4443359375	11.1063429719592	-0.000339691162109375	0.44439697265625
183	0.44677734375	11.1307429718976	-0.000337310791015625	0.44683837890625
184	0.44921875	11.155142971836	-0.00033526611328125	0.449249267578125
185	0.45166015625	11.1795429717744	-0.0003382568359375	0.451690673828125
186	0.4541015625	11.2039429717128	-0.000330810546875	0.454132080078125
187	0.45654296875	11.2283429716512	-0.00033929443359375	0.456573486328125
188	0.458984375	11.2527429715896	-0.000329254150390625	0.459014892578125
189	0.46142578125	11.277142971528	-0.000334014892578125	0.46148681640625
190	0.4638671875	11.3015429714663	-0.000329559326171875	0.463897705078125
191	0.46630859375	11.3259429714047	-0.0003304443359375	0.466339111328125
192	0.46875	11.3503429713431	-0.000332916259765625	0.468780517578125
193	0.47119140625	11.3747429712815	-0.00032623291015625	0.471221923828125
194	0.4736328125	11.3991429712199	-0.00033209228515625	0.47369384765625
195	0.47607421875	11.4235429711583	-0.00032208251953125	0.476104736328125
196	0.478515625	11.4479429710967	-0.0003294677734375	0.478515625
197	0.48095703125	11.4723429710351	-0.0003232421875	0.481048583984375
198	0.4833984375	11.4967429709735	-0.000324127197265625	0.4833984375
199	0.48583984375	11.5211429709119	-0.000323455810546875	0.485870361328125
200	0.48828125	11.5455429708503	-0.0003194580078125	0.488311767578125
201	0.49072265625	11.5699429707887	-0.000325164794921875	0.490692138671875
202	0.4931640625	11.5943429707271	-0.000315460205078125	0.493194580078125
203	0.49560546875	11.6187429706655	-0.0003216552734375	0.49560546875
204	0.498046875	11.6431429706039	-0.00031298828125	0.498046875
205	0.50048828125	11.6675429705423	-0.000317138671875	0.500457763671875
206	0.5029296875	11.6919429704807	-0.00031536865234375	0.5029296875
207	0.50537109375	11.7163429704191	-0.000311798095703125	0.50537109375
208	0.5078125	11.7407429703575	-0.00031488037109375	0.5078125
209	0.51025390625	11.7651429702959	-0.000306396484375	0.51025390625
210	0.5126953125	11.7895429702343	-0.000314117431640625	0.512725830078125
211	0.51513671875	11.8139429701727	-0.00030419921875	0.51513671875
212	0.517578125	11.8383429701111	-0.000308502197265625	0.517578125
213	0.52001953125	11.8627429700495	-0.000304046630859375	0.52001953125
214	0.5224609375	11.8871429699878	-0.000303497314453125	0.522430419921875
215	0.52490234375	11.9115429699262	-0.000306243896484375	0.524932861328125
216	0.52734375	11.9359429698646	-0.000298370361328125	0.527374267578125
217	0.52978515625	11.960342969803	-0.000303985595703125	0.52978515625
218	0.5322265625	11.9847429697414	-0.000293701171875	0.53228759765625
219	0.53466796875	12.0091429696798	-0.00030084228515625	0.53466796875
220	0.537109375	12.0335429696182	-0.0002947998046875	0.537078857421875
221	0.53955078125	12.0579429695566	-0.0002945556640625	0.539459228515625
222	0.5419921875	12.082342969495	-0.00029443359375	0.5419921875
223	0.54443359375	12.1067429694334	-0.000288818359375	0.544403076171875
224	0.546875	12.1311429693718	-0.000295135498046875	0.546905517578125
225	0.54931640625	12.1555429693102	-0.00028460693359375	0.549285888671875
226	0.5517578125	12.1799429692486	-0.000289825439453125	0.551788330078125
227	0.55419921875	12.204342969187	-0.000281646728515625	0.55426025390625
228	0.556640625	12.2287429691254	-0.000284820556640625	0.556549072265625
229	0.55908203125	12.2531429690638	-0.0002833251953125	0.559051513671875
230	0.5615234375	12.2775429690022	-0.000278564453125	0.561492919921875
231	0.56396484375	12.3019429689406	-0.000281829833984375	0.563995361328125
232	0.56640625	12.326342968879	-0.000272125244140625	0.56634521484375
233	0.56884765625	12.3507429688174	-0.00027935791015625	0.56884765625
234	0.5712890625	12.3751429687558	-0.00026922607421875	0.57122802734375
235	0.57373046875	12.3995429686942	-0.000272247314453125	0.57373046875
236	0.576171875	12.4239429686326	-0.000267913818359375	0.576141357421875
237	0.57861328125	12.448342968571	-0.000266204833984375	0.578582763671875
238	0.5810546875	12.4727429685094	-0.00026873779296875	0.580963134765625
239	0.58349609375	12.4971429684477	-0.000259979248046875	0.58343505859375
240	0.5859375	12.5215429683861	-0.00026507568359375	0.585968017578125
241	0.58837890625	12.5459429683245	-0.00025445556640625	0.58831787109375
242	0.5908203125	12.5703429682629	-0.000259979248046875	0.590728759765625
243	0.59326171875	12.5947429682013	-0.000254058837890625	0.593231201171875
244	0.595703125	12.6191429681397	-0.00025213623046875	0.595611572265625
245	0.59814453125	12.6435429680781	-0.000251617431640625	0.598114013671875
246	0.6005859375	12.6679429680165	-0.000244781494140625	0.600555419921875
247	0.60302734375	12.6923429679549	-0.000250396728515625	0.602996826171875
248	0.60546875	12.7167429678933	-0.00023883056640625	0.605438232421875
249	0.60791015625	12.7411429678317	-0.000242919921875	0.60784912109375
250	0.6103515625	12.7655429677701	-0.000234710693359375	0.610321044921875
251	0.61279296875	12.7899429677085	-0.000236297607421875	0.61273193359375
252	0.615234375	12.8143429676469	-0.00023492431640625	0.615203857421875
253	0.61767578125	12.8387429675853	-0.000228851318359375	0.61761474609375
254	0.6201171875	12.8631429675237	-0.0002322998046875	0.620086669921875
255	0.62255859375	12.8875429674621	-0.00022161865234375	0.622528076171875
256	0.625	12.9119429674005	-0.00022821044921875	0.624969482421875
257	0.62744140625	12.9363429673389	-0.00021844482421875	0.627349853515625
258	0.6298828125	12.9607429672773	-0.0002197265625	0.62982177734375
259	0.63232421875	12.9851429672157	-0.000215667724609375	0.632293701171875
260	0.634765625	13.0095429671541	-0.000212249755859375	0.634674072265625
261	0.63720703125	13.0339429670925	-0.000214874267578125	0.637176513671875
262	0.6396484375	13.0583429670309	-0.000204315185546875	0.639617919921875
263	0.64208984375	13.0827429669692	-0.00020867919921875	0.64202880859375
264	0.64453125	13.1071429669076	-0.000197601318359375	0.64447021484375
265	0.64697265625	13.131542966846	-0.000201812744140625	0.6468505859375
266	0.6494140625	13.1559429667844	-0.000196136474609375	0.649322509765625
267	0.65185546875	13.1803429667228	-0.00019281005859375	0.651824951171875
268	0.654296875	13.2047429666612	-0.00019232177734375	0.654205322265625
269	0.65673828125	13.2291429665996	-0.000183990478515625	0.65667724609375
270	0.6591796875	13.253542966538	-0.00018914794921875	0.65911865234375
271	0.66162109375	13.2779429664764	-0.00017730712890625	0.661590576171875
272	0.6640625	13.3023429664148	-0.000180389404296875	0.663970947265625
273	0.66650390625	13.3267429663532	-0.000172515869140625	0.666412353515625
274	0.6689453125	13.3511429662916	-0.000172515869140625	0.6688232421875
275	0.67138671875	13.37554296623	-0.000171295166015625	0.6712646484375
276	0.673828125	13.3999429661684	-0.00016357421875	0.67376708984375
277	0.67626953125	13.4243429661068	-0.00016632080078125	0.676177978515625
278	0.6787109375	13.4487429660452	-0.000154754638671875	0.6785888671875
279	0.68115234375	13.4731429659836	-0.00015985107421875	0.6810302734375
280	0.68359375	13.497542965922	-0.000150146484375	0.683502197265625
281	0.68603515625	13.5219429658604	-0.000149566650390625	0.685943603515625
282	0.6884765625	13.5463429657988	-0.000145538330078125	0.68841552734375
283	0.69091796875	13.5707429657372	-0.000140350341796875	0.6907958984375
284	0.693359375	13.5951429656756	-0.00014251708984375	0.693267822265625
285	0.69580078125	13.619542965614	-0.0001307373046875	0.695709228515625
286	0.6982421875	13.6439429655524	-0.0001341552734375	0.69805908203125
287	0.70068359375	13.6683429654908	-0.00012249755859375	0.700531005859375
288	0.703125	13.6927429654291	-0.0001251220703125	0.702972412109375
289	0.70556640625	13.7171429653675	-0.000119354248046875	0.705474853515625
290	0.7080078125	13.7415429653059	-0.0001142578125	0.707794189453125
291	0.71044921875	13.7659429652443	-0.000113525390625	0.7103271484375
292	0.712890625	13.7903429651827	-0.000103302001953125	0.71270751953125
293	0.71533203125	13.8147429651211	-0.0001080322265625	0.715179443359375
294	0.7177734375	13.8391429650595	-9.539794921875E-05	0.71759033203125
295	0.72021484375	13.8635429649979	-9.6588134765625E-05	0.720062255859375
296	0.72265625	13.8879429649363	-8.819580078125E-05	0.722503662109375
297	0.72509765625	13.9123429648747	-8.5845947265625E-05	0.72491455078125
298	0.7275390625	13.9367429648131	-8.441162109375E-05	0.727325439453125
299	0.72998046875	13.9611429647515	-7.4493408203125E-05	0.72998046875
300	0.732421875	13.9855429646899	-7.5897216796875E-05	0.73223876953125
301	0.73486328125	14.0099429646283	-6.3018798828125E-05	0.734710693359375
302	0.7373046875	14.0343429645667	-6.658935546875E-05	0.7371826171875
303	0.73974609375	14.0587429645051	-5.60302734375E-05	0.73956298828125
304	0.7421875	14.0831429644435	-5.3985595703125E-05	0.741973876953125
305	0.74462890625	14.1075429643819	-4.8858642578125E-05	0.744415283203125
306	0.7470703125	14.1319429643203	-4.1168212890625E-05	0.7469482421875
307	0.74951171875	14.1563429642587	-4.29168701171875E-05	0.74932861328125
308	0.751953125	14.1807429641971	-2.95074462890625E-05	0.75164794921875
309	0.75439453125	14.2051429641355	-3.1317138671875E-05	0.7537841796875
310	0.7568359375	14.2295429640739	-1.86553955078125E-05	0.755615234375
311	0.75927734375	14.2539429640123	-1.88385009765625E-05	0.758056640625
312	0.76171875	14.2783429639506	-1.26190185546875E-05	0.7611083984375
313	0.76416015625	14.302742963889	-5.13916015625E-06	0.76324462890625
314	0.7666015625	14.3271429638274	-3.076171875E-06	0.76629638671875
315	0.76904296875	14.3515429637658	8.70361328125E-06	0.76812744140625
316	0.771484375	14.3759429637042	6.0455322265625E-06	0.77056884765625
317	0.77392578125	14.4003429636426	2.04833984375E-05	0.7733154296875
318	0.7763671875	14.424742963581	2.12677001953125E-05	0.77606201171875
319	0.77880859375	14.4491429635194	3.101806640625E-05	0.7781982421875
320	0.78125	14.4735429634578	3.61114501953125E-05	0.78094482421875
321	0.78369140625	14.4979429633962	3.9044189453125E-05	0.782470703125
322	0.7861328125	14.5223429633346	5.126953125E-05	0.78521728515625
323	0.78857421875	14.546742963273	5.1605224609375E-05	0.78765869140625
324	0.791015625	14.5711429632114	6.6864013671875E-05	0.79010009765625
325	0.79345703125	14.5955429631498	6.5704345703125E-05	0.792236328125
326	0.7958984375	14.6199429630882	7.7667236328125E-05	0.79498291015625
327	0.79833984375	14.6443429630266	8.2305908203125E-05	0.797119140625
328	0.80078125	14.668742962965	8.8623046875E-05	0.8001708984375
329	0.80322265625	14.6931429629034	9.9639892578125E-05	0.8026123046875
330	0.8056640625	14.7175429628418	9.9822998046875E-05	0.8050537109375
331	0.80810546875	14.7419429627802	0.0001153564453125	0.80718994140625
332	0.810546875	14.7663429627186	0.0001163330078125	0.80963134765625
333	0.81298828125	14.790742962657	0.00013055419921875	0.811767578125
334	0.8154296875	14.8151429625954	0.0001337890625	0.814208984375
335	0.81787109375	14.8395429625338	0.000141754150390625	0.816650390625
336	0.8203125	14.8639429624722	0.000152374267578125	0.81939697265625
337	0.82275390625	14.8883429624105	0.0001571044921875	0.8221435546875
338	0.8251953125	14.9127429623489	0.000171905517578125	0.8245849609375
339	0.82763671875	14.9371429622873	0.00017230224609375	0.82611083984375
340	0.830078125	14.9615429622257	0.000187774658203125	0.82916259765625
341	0.83251953125	14.9859429621641	0.000191986083984375	0.8319091796875
342	0.8349609375	15.0103429621025	0.00020367431640625	0.83404541015625
343	0.83740234375	15.0347429620409	0.000212310791015625	0.836181640625
344	0.83984375	15.0591429619793	0.0002181396484375	0.8392333984375
345	0.84228515625	15.0835429619177	0.00023345947265625	0.84075927734375
346	0.8447265625	15.1079429618561	0.00023681640625	0.84381103515625
347	0.84716796875	15.1323429617945	0.000254241943359375	0.84625244140625
348	0.849609375	15.1567429617329	0.00025732421875	0.84869384765625
349	0.85205078125	15.1811429616713	0.0002716064453125	0.85113525390625
350	0.8544921875	15.2055429616097	0.000280975341796875	0.8538818359375
351	0.85693359375	15.2299429615481	0.00029022216796875	0.85601806640625
352	0.859375	15.2543429614865	0.0003043212890625	0.85845947265625
353	0.86181640625	15.2787429614249	0.000308868408203125	0.860595703125
354	0.8642578125	15.3031429613633	0.000327545166015625	0.863037109375
355	0.86669921875	15.3275429613017	0.00033355712890625	0.8660888671875
356	0.869140625	15.3519429612401	0.00035003662109375	0.867919921875
357	0.87158203125	15.3763429611785	0.0003583984375	0.87066650390625
358	0.8740234375	15.4007429611169	0.000369873046875	0.8734130859375
359	0.87646484375	15.4251429610553	0.000385162353515625	0.87554931640625
360	0.87890625	15.4495429609937	0.000393341064453125	0.87799072265625
361	0.88134765625	15.473942960932	0.000411865234375	0.88043212890625
362	0.8837890625	15.4983429608704	0.000418212890625	0.88287353515625
363	0.88623046875	15.5227429608088	0.00043707275390625	0.8856201171875
364	0.888671875	15.5471429607472	0.0004471435546875	0.88775634765625
365	0.89111328125	15.5715429606856	0.000462188720703125	0.89019775390625
366	0.8935546875	15.595942960624	0.00047637939453125	0.892333984375
367	0.89599609375	15.6203429605624	0.00048699951171875	0.8953857421875
368	0.8984375	15.6447429605008	0.00050689697265625	0.897216796875
369	0.90087890625	15.6691429604392	0.00051605224609375	0.9002685546875
370	0.9033203125	15.6935429603776	0.0005377197265625	0.90301513671875
371	0.90576171875	15.717942960316	0.000546875	0.904541015625
372	0.908203125	15.7423429602544	0.00056488037109375	0.90728759765625
373	0.91064453125	15.7667429601928	0.00058074951171875	0.9100341796875
374	0.9130859375	15.7911429601312	0.0005950927734375	0.9124755859375
375	0.91552734375	15.8155429600696	0.00061492919921875	0.91461181640625
376	0.91796875	15.839942960008	0.0006256103515625	0.91705322265625
377	0.92041015625	15.8643429599464	0.00064910888671875	0.919189453125
378	0.9228515625	15.8887429598848	0.00066162109375	0.92254638671875
379	0.92529296875	15.9131429598232	0.0006829833984375	0.92437744140625
380	0.927734375	15.9375429597616	0.00069854736328125	0.926513671875
381	0.93017578125	15.9619429597	0.00071563720703125	0.9295654296875
382	0.9326171875	15.9863429596384	0.00073699951171875	0.93170166015625
383	0.93505859375	16.0107429595768	0.00075225830078125	0.93414306640625
384	0.9375	16.0351429595152	0.0007769775390625	0.93658447265625
385	0.93994140625	16.0595429594536	0.00079071044921875	0.9393310546875
386	0.9423828125	16.0839429593919	0.0008148193359375	0.9417724609375
387	0.94482421875	16.1083429593303	0.00083282470703125	0.9442138671875
388	0.947265625	16.1327429592687	0.0008538818359375	0.94635009765625
389	0.94970703125	16.1571429592071	0.0008758544921875	0.9490966796875
390	0.9521484375	16.1815429591455	0.00089385986328125	0.95184326171875
391	0.95458984375	16.2059429590839	0.00092010498046875	0.9539794921875
392	0.95703125	16.2303429590223	0.00093780517578125	0.955810546875
393	0.95947265625	16.2547429589607	0.00096527099609375	0.95855712890625
394	0.9619140625	16.2791429588991	0.00098388671875	0.960693359375
395	0.96435546875	16.3035429588375	0.0010089111328125	0.9637451171875
396	0.966796875	16.3279429587759	0.00103271484375	0.96527099609375
397	0.96923828125	16.3523429587143	0.0010552978515625	0.96832275390625
398	0.9716796875	16.3767429586527	0.00108306884765625	0.9710693359375
399	0.97412109375	16.4011429585911	0.00110321044921875	0.97320556640625
400	0.9765625	16.4255429585295	0.0011334228515625	0.9759521484375
401	0.97900390625	16.4499429584679	0.00115692138671875	0.97808837890625
402	0.9814453125	16.4743429584063	0.00118560791015625	0.98052978515625
403	0.98388671875	16.4987429583447	0.0012109375	0.98297119140625
404	0.986328125	16.5231429582831	0.0012371826171875	0.98541259765625
405	0.98876953125	16.5475429582215	0.00126739501953125	0.9881591796875
406	0.9912109375	16.5719429581599	0.00129241943359375	0.989990234375
407	0.99365234375	16.5963429580983	0.0013250732421875	0.9930419921875
408	0.99609375	16.6207429580367	0.00134979248046875	0.9954833984375
409	0.99853515625	16.6451429579751	0.00138275146484375	0.99822998046875
410	1.0009765625	16.6695429579134	0.0014111328125	0.999755859375
411	1.00341796875	16.6939429578518	0.00144195556640625	1.00250244140625
412	1.005859375	16.7183429577902	0.0014739990234375	1.00555419921875
413	1.00830078125	16.7427429577286	0.00150299072265625	1.0076904296875
414	1.0107421875	16.767142957667	0.0015386962890625	1.009521484375
415	1.01318359375	16.7915429576054	0.00156768798828125	1.011962890625
416	1.015625	16.8159429575438	0.00160491943359375	1.0150146484375
417	1.01806640625	16.8403429574822	0.00163604736328125	1.016845703125
418	1.0205078125	16.8647429574206	0.0016717529296875	1.0198974609375
419	1.02294921875	16.889142957359	0.00170654296875	1.02203369140625
420	1.025390625	16.9135429572974	0.00174102783203125	1.02447509765625
421	1.02783203125	16.9379429572358	0.00177947998046875	1.0272216796875
422	1.0302734375	16.9623429571742	0.001812744140625	1.02935791015625
423	1.03271484375	16.9867429571126	0.0018536376953125	1.03179931640625
424	1.03515625	17.011142957051	0.00188873291015625	1.0345458984375
425	1.03759765625	17.0355429569894	0.00192901611328125	1.03729248046875
426	1.0400390625	17.0599429569278	0.00196685791015625	1.03973388671875
427	1.04248046875	17.0843429568662	0.002005615234375	1.04156494140625
428	1.044921875	17.1087429568046	0.002047119140625	1.04400634765625
429	1.04736328125	17.133142956743	0.00208587646484375	1.046142578125
430	1.0498046875	17.1575429566814	0.00212982177734375	1.04827880859375
431	1.05224609375	17.1819429566198	0.00216888427734375	1.051025390625
432	1.0546875	17.2063429565582	0.00221343994140625	1.05316162109375
433	1.05712890625	17.2307429564966	0.00225555419921875	1.055908203125
434	1.0595703125	17.255142956435	0.0022998046875	1.05865478515625
435	1.06201171875	17.2795429563733	0.002344970703125	1.060791015625
436	1.064453125	17.3039429563117	0.00238677978515625	1.06353759765625
437	1.06689453125	17.3283429562501	0.00243499755859375	1.06597900390625
438	1.0693359375	17.3527429561885	0.00247894287109375	1.06842041015625
439	1.07177734375	17.3771429561269	0.002528076171875	1.070556640625
440	1.07421875	17.4015429560653	0.00257293701171875	1.07330322265625
441	1.07666015625	17.4259429560037	0.002620849609375	1.075439453125
442	1.0791015625	17.4503429559421	0.00266998291015625	1.07818603515625
443	1.08154296875	17.4747429558805	0.00271728515625	1.0809326171875
444	1.083984375	17.4991429558189	0.00276824951171875	1.08367919921875
445	1.08642578125	17.5235429557573	0.00281585693359375	1.085205078125
446	1.0888671875	17.5479429556957	0.00286865234375	1.08795166015625
447	1.09130859375	17.5723429556341	0.0029180908203125	1.090087890625
448	1.09375	17.5967429555725	0.00297027587890625	1.09283447265625
449	1.09619140625	17.6211429555109	0.00302215576171875	1.0955810546875
450	1.0986328125	17.6455429554493	0.00307342529296875	1.09771728515625
451	1.10107421875	17.6699429553877	0.0031280517578125	1.099853515625
452	1.103515625	17.6943429553261	0.003179931640625	1.10198974609375
453	1.10595703125	17.7187429552645	0.00323577880859375	1.104736328125
454	1.1083984375	17.7431429552029	0.00328765869140625	1.10748291015625
455	1.11083984375	17.7675429551413	0.003343505859375	1.109619140625
456	1.11328125	17.7919429550797	0.0033978271484375	1.11236572265625
457	1.11572265625	17.8163429550181	0.0034527587890625	1.11480712890625
458	1.1181640625	17.8407429549565	0.0035089111328125	1.116943359375
459	1.12060546875	17.8651429548948	0.00356231689453125	1.119384765625
460	1.123046875	17.8895429548332	0.00361907958984375	1.12213134765625
461	1.12548828125	17.9139429547716	0.003673095703125	1.1248779296875
462	1.1279296875	17.93834295471	0.00373016357421875	1.12701416015625
463	1.13037109375	17.9627429546484	0.003782958984375	1.12884521484375
464	1.1328125	17.9871429545868	0.00383758544921875	1.1322021484375
465	1.13525390625	18.0115429545252	0.00389190673828125	1.134033203125
466	1.1376953125	18.0359429544636	0.00394439697265625	1.13677978515625
467	1.14013671875	18.060342954402	0.00399749755859375	1.138916015625
468	1.142578125	18.0847429543404	0.004046630859375	1.14105224609375
469	1.14501953125	18.1091429542788	0.00409820556640625	1.143798828125
470	1.1474609375	18.1335429542172	0.0041461181640625	1.1468505859375
471	1.14990234375	18.1579429541556	0.00419403076171875	1.148681640625
472	1.15234375	18.182342954094	0.00423980712890625	1.151123046875
473	1.15478515625	18.2067429540324	0.00428375244140625	1.153564453125
474	1.1572265625	18.2311429539708	0.00432769775390625	1.15631103515625
475	1.15966796875	18.2555429539092	0.00436859130859375	1.15875244140625
476	1.162109375	18.2799429538476	0.0044097900390625	1.160888671875
477	1.16455078125	18.304342953786	0.00444732666015625	1.1639404296875
478	1.1669921875	18.3287429537244	0.00448486328125	1.16546630859375
479	1.16943359375	18.3531429536628	0.0045208740234375	1.16790771484375
480	1.171875	18.3775429536012	0.0045556640625	1.1712646484375
481	1.17431640625	18.4019429535396	0.00458953857421875	1.17340087890625
482	1.1767578125	18.426342953478	0.0046209716796875	1.17584228515625
483	1.17919921875	18.4507429534164	0.00465301513671875	1.17828369140625
484	1.181640625	18.4751429533547	0.0046826171875	1.18072509765625
485	1.18408203125	18.4995429532931	0.00471221923828125	1.182861328125
486	1.1865234375	18.5239429532315	0.004739990234375	1.18499755859375
487	1.18896484375	18.5483429531699	0.00476715087890625	1.18743896484375
488	1.19140625	18.5727429531083	0.004793701171875	1.19049072265625
489	1.19384765625	18.5971429530467	0.0048193359375	1.19232177734375
490	1.1962890625	18.6215429529851	0.0048443603515625	1.1956787109375
491	1.19873046875	18.6459429529235	0.00486785888671875	1.19781494140625
492	1.201171875	18.6703429528619	0.00489166259765625	1.199951171875
493	1.19873046875	18.6947429528003	0.00486785888671875	1.197509765625
494	1.1962890625	18.7191429527387	0.00484375	1.195068359375
495	1.19384765625	18.7435429526771	0.0048187255859375	1.19293212890625
496	1.19140625	18.7679429526155	0.00479248046875	1.190185546875
497	1.18896484375	18.7923429525539	0.0047662353515625	1.18743896484375
498	1.1865234375	18.8167429524923	0.00473846435546875	1.18560791015625
499	1.18408203125	18.8411429524307	0.004710693359375	1.18316650390625
500	1.181640625	18.8655429523691	0.00468048095703125	1.180419921875
501	1.17919921875	18.8899429523075	0.00465057373046875	1.17828369140625
502	1.1767578125	18.9143429522459	0.00461883544921875	1.175537109375
503	1.17431640625	18.9387429521843	0.004586181640625	1.173095703125
504	1.171875	18.9631429521227	0.0045526123046875	1.1712646484375
505	1.16943359375	18.9875429520611	0.0045166015625	1.168212890625
506	1.1669921875	19.0119429519995	0.004481201171875	1.16607666015625
507	1.16455078125	19.0363429519379	0.0044427490234375	1.16363525390625
508	1.162109375	19.0607429518763	0.004404296875	1.1614990234375
509	1.15966796875	19.0851429518146	0.00436309814453125	1.15875244140625
510	1.1572265625	19.109542951753	0.0043206787109375	1.15570068359375
511	1.15478515625	19.1339429516914	0.00427764892578125	1.153564453125
512	1.15234375	19.1583429516298	0.0042315673828125	1.1505126953125
513	1.14990234375	19.1827429515682	0.0041864013671875	1.1492919921875
514	1.1474609375	19.2071429515066	0.0041363525390625	1.14654541015625
515	1.14501953125	19.231542951445	0.004088134765625	1.143798828125
516	1.142578125	19.2559429513834	0.00403656005859375	1.14166259765625
517	1.14013671875	19.2803429513218	0.00398529052734375	1.13922119140625
518	1.1376953125	19.3047429512602	0.0039324951171875	1.136474609375
519	1.13525390625	19.3291429511986	0.0038775634765625	1.13433837890625
520	1.1328125	19.353542951137	0.00382415771484375	1.131591796875
521	1.13037109375	19.3779429510754	0.00376739501953125	1.129150390625
522	1.1279296875	19.4023429510138	0.00371368408203125	1.12640380859375
523	1.12548828125	19.4267429509522	0.0036553955078125	1.12457275390625
524	1.123046875	19.4511429508906	0.0036004638671875	1.12152099609375
525	1.12060546875	19.475542950829	0.00354400634765625	1.119384765625
526	1.1181640625	19.4999429507674	0.003487548828125	1.11663818359375
527	1.11572265625	19.5243429507058	0.00343231201171875	1.114501953125
528	1.11328125	19.5487429506442	0.00337371826171875	1.1126708984375
529	1.11083984375	19.5731429505826	0.0033209228515625	1.10931396484375
530	1.1083984375	19.597542950521	0.0032635498046875	1.1077880859375
531	1.10595703125	19.6219429504594	0.00321014404296875	1.10504150390625
532	1.103515625	19.6463429503978	0.003154296875	1.10321044921875
533	1.10107421875	19.6707429503361	0.003099365234375	1.099853515625
534	1.0986328125	19.6951429502745	0.00304656982421875	1.09710693359375
535	1.09619140625	19.7195429502129	0.00299163818359375	1.09527587890625
536	1.09375	19.7439429501513	0.0029412841796875	1.0931396484375
537	1.09130859375	19.7683429500897	0.00288543701171875	1.090087890625
538	1.0888671875	19.7927429500281	0.00283599853515625	1.0882568359375
539	1.08642578125	19.8171429499665	0.00278289794921875	1.085205078125
540	1.083984375	19.8415429499049	0.00273284912109375	1.0833740234375
541	1.08154296875	19.8659429498433	0.0026824951171875	1.08062744140625
542	1.0791015625	19.8903429497817	0.00263092041015625	1.07818603515625
543	1.07666015625	19.9147429497201	0.00258392333984375	1.075439453125
544	1.07421875	19.9391429496585	0.0025323486328125	1.072998046875
545	1.07177734375	19.9635429495969	0.00248779296875	1.070556640625
546	1.0693359375	19.9879429495353	0.00243682861328125	1.06842041015625
547	1.06689453125	20.0123429494737	0.00239105224609375	1.06597900390625
548	1.064453125	20.0367429494121	0.0023443603515625	1.063232421875
549	1.06201171875	20.0611429493505	0.0022979736328125	1.06109619140625
550	1.0595703125	20.0855429492889	0.002254638671875	1.0589599609375
551	1.05712890625	20.1099429492273	0.002205810546875	1.05621337890625
552	1.0546875	20.1343429491657	0.00216522216796875	1.05438232421875
553	1.05224609375	20.1587429491041	0.0021185302734375	1.05133056640625
554	1.0498046875	20.1831429490425	0.0020782470703125	1.048583984375
555	1.04736328125	20.2075429489809	0.00203369140625	1.0467529296875
556	1.044921875	20.2319429489193	0.00199127197265625	1.04400634765625
557	1.04248046875	20.2563429488577	0.001951904296875	1.041259765625
558	1.0400390625	20.280742948796	0.00190887451171875	1.03912353515625
559	1.03759765625	20.3051429487344	0.00187255859375	1.03668212890625
560	1.03515625	20.3295429486728	0.00182861328125	1.033935546875
561	1.03271484375	20.3539429486112	0.001793212890625	1.031494140625
562	1.0302734375	20.3783429485496	0.00175323486328125	1.029052734375
563	1.02783203125	20.402742948488	0.00171630859375	1.026611328125
564	1.025390625	20.4271429484264	0.00167938232421875	1.024169921875
565	1.02294921875	20.4515429483648	0.00164031982421875	1.0223388671875
566	1.0205078125	20.4759429483032	0.00160797119140625	1.019287109375
567	1.01806640625	20.5003429482416	0.00156890869140625	1.01715087890625
568	1.015625	20.52474294818	0.0015386962890625	1.0150146484375
569	1.01318359375	20.5491429481184	0.001500244140625	1.0125732421875
570	1.0107421875	20.5735429480568	0.001468505859375	1.0101318359375
571	1.00830078125	20.5979429479952	0.00143524169921875	1.007080078125
572	1.005859375	20.6223429479336	0.00140167236328125	1.00433349609375
573	1.00341796875	20.646742947872	0.00137298583984375	1.00250244140625
574	1.0009765625	20.6711429478104	0.001336669921875	0.999755859375
575	0.99853515625	20.6955429477488	0.00131103515625	0.99761962890625
576	0.99609375	20.7199429476872	0.00127685546875	0.9954833984375
577	0.99365234375	20.7443429476256	0.00125030517578125	0.992431640625
578	0.9912109375	20.768742947564	0.001219482421875	0.99029541015625
579	0.98876953125	20.7931429475024	0.00118988037109375	0.98785400390625
580	0.986328125	20.8175429474408	0.00116424560546875	0.98602294921875
581	0.98388671875	20.8419429473792	0.0011334228515625	0.98297119140625
582	0.9814453125	20.8663429473175	0.00111175537109375	0.980224609375
583	0.97900390625	20.8907429472559	0.0010797119140625	0.97808837890625
584	0.9765625	20.9151429471943	0.00105804443359375	0.97564697265625
585	0.97412109375	20.9395429471327	0.0010296630859375	0.97381591796875
586	0.9716796875	20.9639429470711	0.00100616455078125	0.970458984375
587	0.96923828125	20.9883429470095	0.00098236083984375	0.96832275390625
588	0.966796875	21.0127429469479	0.00095489501953125	0.9661865234375
589	0.96435546875	21.0371429468863	0.0009368896484375	0.9637451171875
590	0.9619140625	21.0615429468247	0.00090911865234375	0.960693359375
591	0.95947265625	21.0859429467631	0.0008917236328125	0.95855712890625
592	0.95703125	21.1103429467015	0.00086517333984375	0.9564208984375
593	0.95458984375	21.1347429466399	0.0008453369140625	0.95367431640625
594	0.9521484375	21.1591429465783	0.0008245849609375	0.950927734375
595	0.94970703125	21.1835429465167	0.000802001953125	0.9490966796875
596	0.947265625	21.2079429464551	0.0007855224609375	0.94635009765625
597	0.94482421875	21.2323429463935	0.00075958251953125	0.9442138671875
598	0.9423828125	21.2567429463319	0.0007464599609375	0.9417724609375
599	0.93994140625	21.2811429462703	0.00072296142578125	0.9393310546875
600	0.9375	21.3055429462087	0.0007073974609375	0.936279296875
601	0.93505859375	21.3299429461471	0.00068695068359375	0.933837890625
602	0.9326171875	21.3543429460855	0.000667724609375	0.931396484375
603	0.93017578125	21.3787429460239	0.0006536865234375	0.9295654296875
604	0.927734375	21.4031429459623	0.00063201904296875	0.926513671875
605	0.92529296875	21.4275429459007	0.000621337890625	0.924072265625
606	0.9228515625	21.4519429458391	0.0005987548828125	0.92254638671875
607	0.92041015625	21.4763429457774	0.00058746337890625	0.91949462890625
608	0.91796875	21.5007429457158	0.00056915283203125	0.916748046875
609	0.91552734375	21.5251429456542	0.00055450439453125	0.91461181640625
610	0.9130859375	21.5495429455926	0.00054046630859375	0.91217041015625
611	0.91064453125	21.573942945531	0.00052093505859375	0.9100341796875
612	0.908203125	21.5983429454694	0.00051300048828125	0.90728759765625
613	0.90576171875	21.6227429454078	0.00049285888671875	0.9051513671875
614	0.9033203125	21.6471429453462	0.000484893798828125	0.90301513671875
615	0.90087890625	21.6715429452846	0.000466400146484375	0.9002685546875
616	0.8984375	21.695942945223	0.0004544677734375	0.89813232421875
617	0.89599609375	21.7203429451614	0.00044219970703125	0.894775390625
618	0.8935546875	21.7447429450998	0.000427001953125	0.89263916015625
619	0.89111328125	21.7691429450382	0.00041943359375	0.89019775390625
620	0.888671875	21.7935429449766	0.000400146484375	0.887451171875
621	0.88623046875	21.817942944915	0.00039520263671875	0.885009765625
622	0.8837890625	21.8423429448534	0.000378570556640625	0.8831787109375
623	0.88134765625	21.8667429447918	0.00037060546875	0.88043212890625
624	0.87890625	21.8911429447302	0.00035736083984375	0.8782958984375
625	0.87646484375	21.9155429446686	0.00034417724609375	0.8758544921875
626	0.8740234375	21.939942944607	0.000337738037109375	0.872802734375
627	0.87158203125	21.9643429445454	0.000321990966796875	0.870361328125
628	0.869140625	21.9887429444838	0.000318450927734375	0.86822509765625
629	0.86669921875	22.0131429444222	0.00030126953125	0.8660888671875
630	0.8642578125	22.0375429443606	0.000296051025390625	0.8636474609375
631	0.86181640625	22.0619429442989	0.000284454345703125	0.86029052734375
632	0.859375	22.0863429442373	0.00027490234375	0.8587646484375
633	0.85693359375	22.1107429441757	0.0002674560546875	0.85601806640625
634	0.8544921875	22.1351429441141	0.0002528076171875	0.8538818359375
635	0.85205078125	22.1595429440525	0.000250640869140625	0.85113525390625
636	0.849609375	22.1839429439909	0.000235443115234375	0.848388671875
637	0.84716796875	22.2083429439293	0.000233154296875	0.845947265625
638	0.8447265625	22.2327429438677	0.000219268798828125	0.84381103515625
639	0.84228515625	22.2571429438061	0.000211700439453125	0.8404541015625
640	0.83984375	22.2815429437445	0.0002052001953125	0.83953857421875
641	0.83740234375	22.3059429436829	0.000193511962890625	0.8367919921875
642	0.8349609375	22.3303429436213	0.0001910400390625	0.833740234375
643	0.83251953125	22.3547429435597	0.00017535400390625	0.831298828125
644	0.830078125	22.3791429434981	0.0001749267578125	0.8294677734375
645	0.82763671875	22.4035429434365	0.000162384033203125	0.82672119140625
646	0.8251953125	22.4279429433749	0.000157928466796875	0.82489013671875
647	0.82275390625	22.4523429433133	0.00014874267578125	0.8221435546875
648	0.8203125	22.4767429432517	0.00013897705078125	0.81939697265625
649	0.81787109375	22.5011429431901	0.000136474609375	0.816650390625
650	0.8154296875	22.5255429431285	0.000123504638671875	0.81451416015625
651	0.81298828125	22.5499429430669	0.0001240234375	0.8123779296875
652	0.810546875	22.5743429430053	0.000109619140625	0.80963134765625
653	0.80810546875	22.5987429429437	0.0001077880859375	0.80780029296875
654	0.8056640625	22.6231429428821	9.906005859375E-05	0.80535888671875
655	0.80322265625	22.6475429428205	9.210205078125E-05	0.8026123046875
656	0.80078125	22.6719429427588	8.7921142578125E-05	0.79986572265625
657	0.79833984375	22.6963429426972	7.4951171875E-05	0.79742431640625
658	0.7958984375	22.7207429426356	7.598876953125E-05	0.7952880859375
659	0.79345703125	22.745142942574	6.3201904296875E-05	0.7928466796875
660	0.791015625	22.7695429425124	6.402587890625E-05	0.7904052734375
661	0.78857421875	22.7939429424508	5.255126953125E-05	0.78765869140625
662	0.7861328125	22.8183429423892	4.74853515625E-05	0.784912109375
663	0.78369140625	22.8427429423276	4.3121337890625E-05	0.7830810546875
664	0.78125	22.867142942266	3.3673095703125E-05	0.7806396484375
665	0.77880859375	22.8915429422044	3.348388671875E-05	0.7781982421875
666	0.7763671875	22.9159429421428	1.9647216796875E-05	0.7757568359375
667	0.77392578125	22.9403429420812	2.1612548828125E-05	0.77301025390625
668	0.771484375	22.9647429420196	1.15081787109375E-05	0.77056884765625
669	0.76904296875	22.989142941958	9.1796875E-06	0.76812744140625
670	0.7666015625	23.0135429418964	2.6275634765625E-06	0.76568603515625
671	0.76416015625	23.0379429418348	-5.950927734375E-06	0.7635498046875
672	0.76171875	23.0623429417732	-5.5755615234375E-06	0.76080322265625
673	0.75927734375	23.0867429417116	-1.69769287109375E-05	0.75897216796875
674	0.7568359375	23.11114294165	-1.4019775390625E-05	0.75592041015625
675	0.75439453125	23.1355429415884	-2.67425537109375E-05	0.75408935546875
676	0.751953125	23.1599429415268	-2.69866943359375E-05	0.75164794921875
677	0.74951171875	23.1843429414652	-3.34075927734375E-05	0.749359130859375
678	0.7470703125	23.2087429414036	-3.8897705078125E-05	0.7469482421875
679	0.74462890625	23.233142941342	-4.0283203125E-05	0.7445068359375
680	0.7421875	23.2575429412803	-5.1788330078125E-05	0.742034912109375
681	0.73974609375	23.2819429412187	-4.84619140625E-05	0.739654541015625
682	0.7373046875	23.3063429411571	-5.9478759765625E-05	0.73712158203125
683	0.73486328125	23.3307429410955	-5.77392578125E-05	0.7347412109375
684	0.732421875	23.3551429410339	-6.70166015625E-05	0.73223876953125
685	0.72998046875	23.3795429409723	-7.0953369140625E-05	0.729827880859375
686	0.7275390625	23.4039429409107	-7.3028564453125E-05	0.727447509765625
687	0.72509765625	23.4283429408491	-8.148193359375E-05	0.725067138671875
688	0.72265625	23.4527429407875	-7.8857421875E-05	0.72259521484375
689	0.72021484375	23.4771429407259	-9.1766357421875E-05	0.7200927734375
690	0.7177734375	23.5015429406643	-8.80126953125E-05	0.71771240234375
691	0.71533203125	23.5259429406027	-9.674072265625E-05	0.715240478515625
692	0.712890625	23.5503429405411	-9.7991943359375E-05	0.712799072265625
693	0.71044921875	23.5747429404795	-0.000102569580078125	0.71038818359375
694	0.7080078125	23.5991429404179	-0.000109893798828125	0.7080078125
695	0.70556640625	23.6235429403563	-0.000107757568359375	0.70550537109375
696	0.703125	23.6479429402947	-0.00011834716796875	0.703155517578125
697	0.70068359375	23.6723429402331	-0.000113739013671875	0.700653076171875
698	0.6982421875	23.6967429401715	-0.00012518310546875	0.6982421875
699	0.69580078125	23.7211429401099	-0.0001248779296875	0.69580078125
700	0.693359375	23.7455429400483	-0.000129852294921875	0.693359375
701	0.69091796875	23.7699429399867	-0.000134429931640625	0.691009521484375
702	0.6884765625	23.7943429399251	-0.000134521484375	0.6884765625
703	0.68603515625	23.8187429398635	-0.00014520263671875	0.68603515625
704	0.68359375	23.8431429398019	-0.0001405029296875	0.683685302734375
705	0.68115234375	23.8675429397402	-0.000150543212890625	0.68121337890625
706	0.6787109375	23.8919429396786	-0.000147552490234375	0.678863525390625
707	0.67626953125	23.916342939617	-0.000155609130859375	0.67633056640625
708	0.673828125	23.9407429395554	-0.000158782958984375	0.673919677734375
709	0.67138671875	23.9651429394938	-0.000159423828125	0.6715087890625
710	0.6689453125	23.9895429394322	-0.000167205810546875	0.669036865234375
711	0.66650390625	24.0139429393706	-0.00016326904296875	0.6666259765625
712	0.6640625	24.038342939309	-0.0001751708984375	0.66412353515625
713	0.66162109375	24.0627429392474	-0.000170562744140625	0.66180419921875
714	0.6591796875	24.0871429391858	-0.00017816162109375	0.659271240234375
715	0.65673828125	24.1115429391242	-0.000178802490234375	0.6568603515625
716	0.654296875	24.1359429390626	-0.00018231201171875	0.654449462890625
717	0.65185546875	24.160342939001	-0.0001893310546875	0.6519775390625
718	0.6494140625	24.1847429389394	-0.000186004638671875	0.64959716796875
719	0.64697265625	24.2091429388778	-0.000195831298828125	0.64715576171875
720	0.64453125	24.2335429388162	-0.000190338134765625	0.6446533203125
721	0.64208984375	24.2579429387546	-0.000200958251953125	0.64227294921875
722	0.6396484375	24.282342938693	-0.0001995849609375	0.639892578125
723	0.63720703125	24.3067429386314	-0.0002034912109375	0.637298583984375
724	0.634765625	24.3311429385698	-0.00020751953125	0.634979248046875
725	0.63232421875	24.3555429385082	-0.00020684814453125	0.632537841796875
726	0.6298828125	24.3799429384466	-0.000217376708984375	0.630096435546875
727	0.62744140625	24.404342938385	-0.000211151123046875	0.627655029296875
728	0.625	24.4287429383234	-0.000220672607421875	0.625213623046875
729	0.62255859375	24.4531429382617	-0.0002169189453125	0.622772216796875
730	0.6201171875	24.4775429382001	-0.000223907470703125	0.620330810546875
731	0.61767578125	24.5019429381385	-0.000226318359375	0.617919921875
732	0.615234375	24.5263429380769	-0.000225830078125	0.615386962890625
733	0.61279296875	24.5507429380153	-0.000233123779296875	0.613037109375
734	0.6103515625	24.5751429379537	-0.0002281494140625	0.610626220703125
735	0.60791015625	24.5995429378921	-0.0002396240234375	0.608123779296875
736	0.60546875	24.6239429378305	-0.000233856201171875	0.605682373046875
737	0.60302734375	24.6483429377689	-0.00024102783203125	0.603302001953125
738	0.6005859375	24.6727429377073	-0.00024072265625	0.600799560546875
739	0.59814453125	24.6971429376457	-0.0002432861328125	0.598419189453125
740	0.595703125	24.7215429375841	-0.00024993896484375	0.595977783203125
741	0.59326171875	24.7459429375225	-0.00024554443359375	0.593597412109375
742	0.5908203125	24.7703429374609	-0.000254913330078125	0.591064453125
743	0.58837890625	24.7947429373993	-0.000248504638671875	0.588592529296875
744	0.5859375	24.8191429373377	-0.0002584228515625	0.586181640625
745	0.58349609375	24.8435429372761	-0.000256561279296875	0.58380126953125
746	0.5810546875	24.8679429372145	-0.000259552001953125	0.581298828125
747	0.57861328125	24.8923429371529	-0.000262969970703125	0.57891845703125
748	0.576171875	24.9167429370913	-0.000261260986328125	0.576385498046875
749	0.57373046875	24.9411429370297	-0.000271087646484375	0.574005126953125
750	0.5712890625	24.9655429369681	-0.000264068603515625	0.57159423828125
751	0.56884765625	24.9899429369065	-0.000272979736328125	0.569122314453125
752	0.56640625	25.0143429368449	-0.000268585205078125	0.56671142578125
753	0.56396484375	25.0387429367833	-0.000275054931640625	0.564239501953125
754	0.5615234375	25.0631429367216	-0.000277099609375	0.56182861328125
755	0.55908203125	25.08754293666	-0.000275665283203125	0.559326171875
756	0.556640625	25.1119429365984	-0.000282562255859375	0.5570068359375
757	0.55419921875	25.1363429365368	-0.000276641845703125	0.55450439453125
758	0.5517578125	25.1607429364752	-0.000287445068359375	0.552093505859375
759	0.54931640625	25.1851429364136	-0.000280975341796875	0.549652099609375
760	0.546875	25.209542936352	-0.000287261962890625	0.547210693359375
761	0.54443359375	25.2339429362904	-0.0002862548828125	0.5447998046875
762	0.5419921875	25.2583429362288	-0.0002880859375	0.542327880859375
763	0.53955078125	25.2827429361672	-0.00029400634765625	0.5399169921875
764	0.537109375	25.3071429361056	-0.000288787841796875	0.5374755859375
765	0.53466796875	25.331542936044	-0.000297393798828125	0.5350341796875
766	0.5322265625	25.3559429359824	-0.000289886474609375	0.53265380859375
767	0.52978515625	25.3803429359208	-0.0002991943359375	0.53009033203125
768	0.52734375	25.4047429358592	-0.000296478271484375	0.527679443359375
769	0.52490234375	25.4291429357976	-0.0002987060546875	0.525238037109375
770	0.5224609375	25.453542935736	-0.000301513671875	0.522857666015625
771	0.52001953125	25.4779429356744	-0.000298797607421875	0.51995849609375
772	0.517578125	25.5023429356128	-0.000307891845703125	0.517578125
773	0.51513671875	25.5267429355512	-0.000300048828125	0.515167236328125
774	0.5126953125	25.5511429354896	-0.000307952880859375	0.512725830078125
775	0.51025390625	25.575542935428	-0.000302764892578125	0.51025390625
776	0.5078125	25.5999429353664	-0.000308319091796875	0.5078125
777	0.50537109375	25.6243429353048	-0.000309814453125	0.50537109375
778	0.5029296875	25.6487429352431	-0.000307525634765625	0.5029296875
779	0.50048828125	25.6731429351815	-0.00031402587890625	0.500518798828125
780	0.498046875	25.6975429351199	-0.000307403564453125	0.498016357421875
781	0.49560546875	25.7219429350583	-0.000317840576171875	0.49560546875
782	0.4931640625	25.7463429349967	-0.000310882568359375	0.4931640625
783	0.49072265625	25.7707429349351	-0.00031658935546875	0.49072265625
784	0.48828125	25.7951429348735	-0.000315216064453125	0.48834228515625
785	0.48583984375	25.8195429348119	-0.00031646728515625	0.48590087890625
786	0.4833984375	25.8439429347503	-0.000322021484375	0.48345947265625
787	0.48095703125	25.8683429346887	-0.000316253662109375	0.48095703125
788	0.478515625	25.8927429346271	-0.000324920654296875	0.478546142578125
789	0.47607421875	25.9171429345655	-0.000317047119140625	0.476165771484375
790	0.4736328125	25.9415429345039	-0.000326171875	0.473663330078125
791	0.47119140625	25.9659429344423	-0.000322998046875	0.471282958984375
792	0.46875	25.9903429343807	-0.000324920654296875	0.46875
793	0.46630859375	26.0147429343191	-0.000327392578125	0.466400146484375
794	0.4638671875	26.0391429342575	-0.00032403564453125	0.4638671875
795	0.46142578125	26.0635429341959	-0.000332916259765625	0.46148681640625
796	0.458984375	26.0879429341343	-0.000324859619140625	0.45904541015625
797	0.45654296875	26.1123429340727	-0.000332550048828125	0.45654296875
798	0.4541015625	26.1367429340111	-0.000326873779296875	0.4541015625
799	0.45166015625	26.1611429339495	-0.000332305908203125	0.4517822265625
800	0.44921875	26.1855429338879	-0.000333343505859375	0.449249267578125
801	0.44677734375	26.2099429338263	-0.00033074951171875	0.44683837890625
802	0.4443359375	26.2343429337647	-0.0003367919921875	0.444427490234375
803	0.44189453125	26.258742933703	-0.000329681396484375	0.44189453125
804	0.439453125	26.2831429336414	-0.000339691162109375	0.43951416015625
805	0.43701171875	26.3075429335798	-0.000332183837890625	0.437042236328125
806	0.4345703125	26.3319429335182	-0.00033758544921875	0.434600830078125
807	0.43212890625	26.3563429334566	-0.000335693359375	0.43218994140625
808	0.4296875	26.380742933395	-0.0003365478515625	0.42974853515625
809	0.42724609375	26.4051429333334	-0.000341705322265625	0.42730712890625
810	0.4248046875	26.4295429332718	-0.000335357666015625	0.424896240234375
811	0.42236328125	26.4539429332102	-0.00034332275390625	0.42242431640625
812	0.419921875	26.4783429331486	-0.000334991455078125	0.419952392578125
813	0.41748046875	26.502742933087	-0.00034368896484375	0.417510986328125
814	0.4150390625	26.5271429330254	-0.00034014892578125	0.41510009765625
815	0.41259765625	26.5515429329638	-0.000341583251953125	0.41265869140625
816	0.41015625	26.5759429329022	-0.000343780517578125	0.41021728515625
817	0.40771484375	26.6003429328406	-0.000339935302734375	0.407745361328125
818	0.4052734375	26.624742932779	-0.000348602294921875	0.405364990234375
819	0.40283203125	26.6491429327174	-0.000339752197265625	0.40289306640625
820	0.400390625	26.6735429326558	-0.000347259521484375	0.400421142578125
821	0.39794921875	26.6979429325942	-0.000341278076171875	0.39801025390625
822	0.3955078125	26.7223429325326	-0.000346435546875	0.39556884765625
823	0.39306640625	26.746742932471	-0.000347198486328125	0.393096923828125
824	0.390625	26.7711429324094	-0.00034429931640625	0.39068603515625
825	0.38818359375	26.7955429323478	-0.000349884033203125	0.388214111328125
826	0.3857421875	26.8199429322862	-0.000342559814453125	0.385833740234375
827	0.38330078125	26.8443429322245	-0.000352325439453125	0.383331298828125
828	0.380859375	26.8687429321629	-0.0003446044921875	0.380828857421875
829	0.37841796875	26.8931429321013	-0.000349884033203125	0.37847900390625
830	0.3759765625	26.9175429320397	-0.000347625732421875	0.3760986328125
831	0.37353515625	26.9419429319781	-0.000348236083984375	0.37359619140625
832	0.37109375	26.9663429319165	-0.000353271484375	0.371124267578125
833	0.36865234375	26.9907429318549	-0.0003466796875	0.368743896484375
834	0.3662109375	27.0151429317933	-0.00035443115234375	0.3663330078125
835	0.36376953125	27.0395429317317	-0.000345672607421875	0.36383056640625
836	0.361328125	27.0639429316701	-0.000354217529296875	0.361358642578125
837	0.35888671875	27.0883429316085	-0.0003504638671875	0.3590087890625
838	0.3564453125	27.1127429315469	-0.0003515625	0.356536865234375
839	0.35400390625	27.1371429314853	-0.00035357666015625	0.354034423828125
840	0.3515625	27.1615429314237	-0.000349700927734375	0.351593017578125
841	0.34912109375	27.1859429313621	-0.000358306884765625	0.349212646484375
842	0.3466796875	27.2103429313005	-0.000349334716796875	0.34674072265625
843	0.34423828125	27.2347429312389	-0.00035711669921875	0.344268798828125
844	0.341796875	27.2591429311773	-0.00035101318359375	0.34185791015625
845	0.33935546875	27.2835429311157	-0.000356048583984375	0.33941650390625
846	0.3369140625	27.3079429310541	-0.0003568115234375	0.3369140625
847	0.33447265625	27.3323429309925	-0.000353851318359375	0.33453369140625
848	0.33203125	27.3567429309309	-0.000359527587890625	0.332122802734375
849	0.32958984375	27.3811429308693	-0.000351898193359375	0.32965087890625
850	0.3271484375	27.4055429308077	-0.000361785888671875	0.327178955078125
851	0.32470703125	27.4299429307461	-0.0003538818359375	0.324798583984375
852	0.322265625	27.4543429306844	-0.000358978271484375	0.32232666015625
853	0.31982421875	27.4787429306228	-0.000356842041015625	0.319915771484375
854	0.3173828125	27.5031429305612	-0.000357147216796875	0.317474365234375
855	0.31494140625	27.5275429304996	-0.00036224365234375	0.314971923828125
856	0.3125	27.551942930438	-0.000355255126953125	0.31256103515625
857	0.31005859375	27.5763429303764	-0.0003629150390625	0.31011962890625
858	0.3076171875	27.6007429303148	-0.00035382080078125	0.307647705078125
859	0.30517578125	27.6251429302532	-0.0003623046875	0.30517578125
860	0.302734375	27.6495429301916	-0.00035858154296875	0.30279541015625
861	0.30029296875	27.67394293013	-0.00035992431640625	0.30035400390625
862	0.2978515625	27.6983429300684	-0.00036181640625	0.297882080078125
863	0.29541015625	27.7227429300068	-0.000357818603515625	0.29547119140625
864	0.29296875	27.7471429299452	-0.0003662109375	0.293060302734375
865	0.29052734375	27.7715429298836	-0.000357086181640625	0.290557861328125
866	0.2880859375	27.795942929822	-0.000364532470703125	0.2882080078125
867	0.28564453125	27.8203429297604	-0.000358184814453125	0.28570556640625
868	0.283203125	27.8447429296988	-0.000363189697265625	0.283294677734375
869	0.28076171875	27.8691429296372	-0.00036383056640625	0.28082275390625
870	0.2783203125	27.8935429295756	-0.000360870361328125	0.278411865234375
871	0.27587890625	27.917942929514	-0.000366363525390625	0.27593994140625
872	0.2734375	27.9423429294524	-0.00035894775390625	0.27349853515625
873	0.27099609375	27.9667429293908	-0.000368804931640625	0.27105712890625
874	0.2685546875	27.9911429293292	-0.00036065673828125	0.268585205078125
875	0.26611328125	28.0155429292676	-0.000365814208984375	0.266143798828125
876	0.263671875	28.0399429292059	-0.0003634033203125	0.263702392578125
877	0.26123046875	28.0643429291443	-0.000363861083984375	0.26129150390625
878	0.2587890625	28.0887429290827	-0.00036871337890625	0.2589111328125
879	0.25634765625	28.1131429290211	-0.000361724853515625	0.25640869140625
880	0.25390625	28.1375429289595	-0.0003695068359375	0.253997802734375
881	0.25146484375	28.1619429288979	-0.00036053466796875	0.251556396484375
882	0.2490234375	28.1863429288363	-0.0003690185546875	0.249053955078125
883	0.24658203125	28.2107429287747	-0.00036474609375	0.2467041015625
884	0.244140625	28.2351429287131	-0.00036572265625	0.244171142578125
885	0.24169921875	28.2595429286515	-0.000367462158203125	0.2418212890625
886	0.2392578125	28.2839429285899	-0.000363525390625	0.23931884765625
887	0.23681640625	28.3083429285283	-0.000371795654296875	0.23687744140625
888	0.234375	28.3327429284667	-0.0003626708984375	0.23443603515625
889	0.23193359375	28.3571429284051	-0.000370269775390625	0.23199462890625
890	0.2294921875	28.3815429283435	-0.00036376953125	0.229522705078125
891	0.22705078125	28.4059429282819	-0.00036895751953125	0.227142333984375
892	0.224609375	28.4303429282203	-0.000369354248046875	0.22467041015625
893	0.22216796875	28.4547429281587	-0.0003665771484375	0.22222900390625
894	0.2197265625	28.4791429280971	-0.0003719482421875	0.2198486328125
895	0.21728515625	28.5035429280355	-0.000364501953125	0.2174072265625
896	0.21484375	28.5279429279739	-0.000374420166015625	0.214935302734375
897	0.21240234375	28.5523429279123	-0.000365966796875	0.212493896484375
898	0.2099609375	28.5767429278507	-0.000371368408203125	0.2100830078125
899	0.20751953125	28.6011429277891	-0.000368804931640625	0.207611083984375
900	0.205078125	28.6255429277275	-0.00036956787109375	0.2052001953125
901	0.20263671875	28.6499429276658	-0.0003743896484375	0.202728271484375
902	0.2001953125	28.6743429276042	-0.000367645263671875	0.2003173828125
903	0.19775390625	28.6987429275426	-0.00037542724609375	0.197845458984375
904	0.1953125	28.723142927481	-0.000366363525390625	0.1954345703125
905	0.19287109375	28.7475429274194	-0.00037506103515625	0.192962646484375
906	0.1904296875	28.7719429273578	-0.000370635986328125	0.19049072265625
907	0.18798828125	28.7963429272962	-0.000372100830078125	0.188018798828125
908	0.185546875	28.8207429272346	-0.0003736572265625	0.18560791015625
909	0.18310546875	28.845142927173	-0.00036981201171875	0.183135986328125
910	0.1806640625	28.8695429271114	-0.000378082275390625	0.18072509765625
911	0.17822265625	28.8939429270498	-0.000368865966796875	0.178314208984375
912	0.17578125	28.9183429269882	-0.000376678466796875	0.175811767578125
913	0.17333984375	28.9427429269266	-0.000369720458984375	0.17340087890625
914	0.1708984375	28.967142926865	-0.000375091552734375	0.1710205078125
915	0.16845703125	28.9915429268034	-0.0003751220703125	0.16851806640625
916	0.166015625	29.0159429267418	-0.000372314453125	0.1661376953125
917	0.16357421875	29.0403429266802	-0.000377471923828125	0.1636962890625
918	0.1611328125	29.0647429266186	-0.000369842529296875	0.161224365234375
919	0.15869140625	29.089142926557	-0.000379608154296875	0.158782958984375
920	0.15625	29.1135429264954	-0.00037091064453125	0.15631103515625
921	0.15380859375	29.1379429264338	-0.00037628173828125	0.1539306640625
922	0.1513671875	29.1623429263722	-0.000373382568359375	0.151458740234375
923	0.14892578125	29.1867429263106	-0.000374298095703125	0.1490478515625
924	0.146484375	29.211142926249	-0.000378692626953125	0.146575927734375
925	0.14404296875	29.2355429261873	-0.000372039794921875	0.144195556640625
926	0.1416015625	29.2599429261257	-0.000379638671875	0.14178466796875
927	0.13916015625	29.2843429260641	-0.000370361328125	0.1392822265625
928	0.13671875	29.3087429260025	-0.000379150390625	0.13677978515625
929	0.13427734375	29.3331429259409	-0.000374420166015625	0.134368896484375
930	0.1318359375	29.3575429258793	-0.000376007080078125	0.1319580078125
931	0.12939453125	29.3819429258177	-0.000377166748046875	0.1295166015625
932	0.126953125	29.4063429257561	-0.00037353515625	0.127044677734375
933	0.12451171875	29.4307429256945	-0.000381622314453125	0.12469482421875
934	0.1220703125	29.4551429256329	-0.000372344970703125	0.122161865234375
935	0.11962890625	29.4795429255713	-0.0003800048828125	0.119720458984375
936	0.1171875	29.5039429255097	-0.000372650146484375	0.117340087890625
937	0.11474609375	29.5283429254481	-0.000378265380859375	0.114898681640625
938	0.1123046875	29.5527429253865	-0.000377960205078125	0.1124267578125
939	0.10986328125	29.5771429253249	-0.00037530517578125	0.10992431640625
940	0.107421875	29.6015429252633	-0.000380096435546875	0.107513427734375
941	0.10498046875	29.6259429252017	-0.00037261962890625	0.1051025390625
942	0.1025390625	29.6503429251401	-0.000382476806640625	0.102691650390625
943	0.10009765625	29.6747429250785	-0.000373626708984375	0.100250244140625
944	0.09765625	29.6991429250169	-0.000379241943359375	0.097808837890625
945	0.09521484375	29.7235429249553	-0.00037603759765625	0.0953369140625
946	0.0927734375	29.7479429248937	-0.000377197265625	0.0928955078125
947	0.09033203125	29.7723429248321	-0.000381256103515625	0.090423583984375
948	0.087890625	29.7967429247705	-0.000374725341796875	0.08795166015625
949	0.08544921875	29.8211429247089	-0.000382293701171875	0.085540771484375
950	0.0830078125	29.8455429246472	-0.0003729248046875	0.0831298828125
951	0.08056640625	29.8699429245856	-0.0003817138671875	0.080657958984375
952	0.078125	29.894342924524	-0.000376556396484375	0.078277587890625
953	0.07568359375	29.9187429244624	-0.000378265380859375	0.075775146484375
954	0.0732421875	29.9431429244008	-0.00037908935546875	0.0733642578125
955	0.07080078125	29.9675429243392	-0.000375518798828125	0.070892333984375
956	0.068359375	29.9919429242776	-0.0003831787109375	0.068511962890625
957	0.06591796875	30.016342924216	-0.000373809814453125	0.0660400390625
958	0.0634765625	30.0407429241544	-0.000381378173828125	0.0635986328125
959	0.06103515625	30.0651429240928	-0.000373809814453125	0.0611572265625
960	0.05859375	30.0895429240312	-0.000379364013671875	0.0587158203125
961	0.05615234375	30.1139429239696	-0.000378753662109375	0.056243896484375
962	0.0537109375	30.138342923908	-0.00037628173828125	0.053863525390625
963	0.05126953125	30.1627429238464	-0.000380889892578125	0.0513916015625
964	0.048828125	30.1871429237848	-0.000373504638671875	0.048980712890625
965	0.04638671875	30.2115429237232	-0.0003831787109375	0.0465576171875
966	0.0439453125	30.2359429236616	-0.0003739013671875	0.0441070556640625
967	0.04150390625	30.2603429236	-0.000379608154296875	0.041656494140625
968	0.0390625	30.2847429235384	-0.00037591552734375	0.039208984375
969	0.03662109375	30.3091429234768	-0.000377410888671875	0.0367828369140625
970	0.0341796875	30.3335429234152	-0.0003809814453125	0.034344482421875
971	0.03173828125	30.3579429233536	-0.00037469482421875	0.031866455078125
972	0.029296875	30.382342923292	-0.00038201904296875	0.0294586181640625
973	0.02685546875	30.4067429232304	-0.0003726806640625	0.0269989013671875
974	0.0244140625	30.4311429231687	-0.000381591796875	0.024566650390625
975	0.02197265625	30.4555429231071	-0.000376068115234375	0.02213134765625
976	0.01953125	30.4799429230455	-0.000378143310546875	0.0196807861328125
977	0.01708984375	30.5043429229839	-0.000378662109375	0.0172698974609375
978	0.0146484375	30.5287429229223	-0.00037567138671875	0.01480712890625
979	0.01220703125	30.5531429228607	-0.000383209228515625	0.0123809814453125
980	0.009765625	30.5775429227991	-0.00037420654296875	0.009930419921875
981	0.00732421875	30.6019429227375	-0.0003818359375	0.0074951171875
982	0.0048828125	30.6263429226759	-0.00037408447265625	0.0050506591796875
983	0.00244140625	30.6507429226143	-0.000380126953125	0.00261535644531249
984	0	30.6751429225527	-0.00037921142578125	0.000161743164062506
985	0.00244140625	30.6995429224911	-0.000376922607421875	0.002593994140625
986	0.0048828125	30.7239429224295	-0.000381134033203125	0.00507202148437499
