Index	Potential applied (V)	Time (s)	WE(1).Current (A)	WE(1).Potential (V)
1	0.00244140625	288.335160272024	-2.7294921875E-05	0.0026123046875
2	0.0048828125	288.359560271962	-2.62939453125E-05	0.0050384521484375
3	0.00732421875	288.3839602719	-2.6104736328125E-05	0.0075103759765625
4	0.009765625	288.408360271839	-2.55859375E-05	0.00991210937500001
5	0.01220703125	288.432760271777	-2.4853515625E-05	0.01234130859375
6	0.0146484375	288.457160271716	-2.47161865234375E-05	0.014801025390625
7	0.01708984375	288.481560271654	-2.36541748046875E-05	0.017242431640625
8	0.01953125	288.505960271592	-2.38433837890625E-05	0.0196807861328125
9	0.02197265625	288.530360271531	-2.27691650390625E-05	0.022119140625
10	0.0244140625	288.554760271469	-2.26806640625E-05	0.02457275390625
11	0.02685546875	288.579160271408	-2.1990966796875E-05	0.02701416015625
12	0.029296875	288.603560271346	-2.15118408203125E-05	0.0294647216796875
13	0.03173828125	288.627960271284	-2.13592529296875E-05	0.0318756103515625
14	0.0341796875	288.652360271223	-2.0404052734375E-05	0.034320068359375
15	0.03662109375	288.676760271161	-2.04559326171875E-05	0.0367645263671875
16	0.0390625	288.7011602711	-1.92962646484375E-05	0.039202880859375
17	0.04150390625	288.725560271038	-1.94000244140625E-05	0.04163818359375
18	0.0439453125	288.749960270976	-1.85882568359375E-05	0.044085693359375
19	0.04638671875	288.774360270915	-1.81488037109375E-05	0.0465362548828125
20	0.048828125	288.798760270853	-1.7755126953125E-05	0.0489776611328125
21	0.05126953125	288.823160270792	-1.68914794921875E-05	0.05133056640625
22	0.0537109375	288.84756027073	-1.70257568359375E-05	0.053802490234375
23	0.05615234375	288.871960270668	-1.5911865234375E-05	0.05621337890625
24	0.05859375	288.896360270607	-1.59210205078125E-05	0.0587158203125
25	0.06103515625	288.920760270545	-1.49658203125E-05	0.0611572265625
26	0.0634765625	288.945160270484	-1.4727783203125E-05	0.0635986328125
27	0.06591796875	288.969560270422	-1.42333984375E-05	0.066009521484375
28	0.068359375	288.99396027036	-1.348876953125E-05	0.068389892578125
29	0.07080078125	289.018360270299	-1.33331298828125E-05	0.070892333984375
30	0.0732421875	289.042760270237	-1.22467041015625E-05	0.07330322265625
31	0.07568359375	289.067160270176	-1.23809814453125E-05	0.07574462890625
32	0.078125	289.091560270114	-1.13433837890625E-05	0.07818603515625
33	0.08056640625	289.115960270052	-1.11083984375E-05	0.080657958984375
34	0.0830078125	289.140360269991	-1.0443115234375E-05	0.083099365234375
35	0.08544921875	289.164760269929	-9.869384765625E-06	0.085540771484375
36	0.087890625	289.189160269868	-9.72900390625E-06	0.0880126953125
37	0.09033203125	289.213560269806	-8.77685546875E-06	0.090362548828125
38	0.0927734375	289.237960269744	-8.8134765625E-06	0.092803955078125
39	0.09521484375	289.262360269683	-7.5469970703125E-06	0.0953369140625
40	0.09765625	289.286760269621	-7.6324462890625E-06	0.097808837890625
41	0.10009765625	289.31116026956	-6.7535400390625E-06	0.100189208984375
42	0.1025390625	289.335560269498	-6.396484375E-06	0.10260009765625
43	0.10498046875	289.359960269436	-5.96923828125E-06	0.105133056640625
44	0.107421875	289.384360269375	-5.06591796875E-06	0.107513427734375
45	0.10986328125	289.408760269313	-5.1422119140625E-06	0.109893798828125
46	0.1123046875	289.433160269252	-4.0570068359375E-06	0.112335205078125
47	0.11474609375	289.45756026919	-3.994140625E-06	0.1148681640625
48	0.1171875	289.481960269128	-2.99896240234375E-06	0.11724853515625
49	0.11962890625	289.506360269067	-2.6953125E-06	0.119720458984375
50	0.1220703125	289.530760269005	-2.2235107421875E-06	0.1221923828125
51	0.12451171875	289.555160268943	-1.34002685546875E-06	0.12457275390625
52	0.126953125	289.579560268882	-1.2042236328125E-06	0.127044677734375
53	0.12939453125	289.60396026882	-7.415771484375E-08	0.12945556640625
54	0.1318359375	289.628360268759	-2.813720703125E-07	0.131866455078125
55	0.13427734375	289.652760268697	9.796142578125E-07	0.134307861328125
56	0.13671875	289.677160268635	1.29913330078125E-06	0.13671875
57	0.13916015625	289.701560268574	1.94732666015625E-06	0.139190673828125
58	0.1416015625	289.725960268512	2.54730224609375E-06	0.1416015625
59	0.14404296875	289.750360268451	2.802734375E-06	0.14404296875
60	0.146484375	289.774760268389	4.01031494140625E-06	0.146453857421875
61	0.14892578125	289.799160268327	3.9471435546875E-06	0.14892578125
62	0.1513671875	289.823560268266	5.0567626953125E-06	0.151275634765625
63	0.15380859375	289.847960268204	5.28564453125E-06	0.153717041015625
64	0.15625	289.872360268143	5.9173583984375E-06	0.156158447265625
65	0.15869140625	289.896760268081	6.4422607421875E-06	0.1585693359375
66	0.1611328125	289.921160268019	6.9610595703125E-06	0.16107177734375
67	0.16357421875	289.945560267958	7.8643798828125E-06	0.1634521484375
68	0.166015625	289.969960267896	7.7362060546875E-06	0.165863037109375
69	0.16845703125	289.994360267835	8.89892578125E-06	0.1683349609375
70	0.1708984375	290.018760267773	8.905029296875E-06	0.170745849609375
71	0.17333984375	290.043160267711	9.9853515625E-06	0.173126220703125
72	0.17578125	290.06756026765	1.03790283203125E-05	0.1756591796875
73	0.17822265625	290.091960267588	1.0821533203125E-05	0.178070068359375
74	0.1806640625	290.116360267527	1.1663818359375E-05	0.180511474609375
75	0.18310546875	290.140760267465	1.192626953125E-05	0.18292236328125
76	0.185546875	290.165160267403	1.3037109375E-05	0.185333251953125
77	0.18798828125	290.189560267342	1.30096435546875E-05	0.187774658203125
78	0.1904296875	290.21396026728	1.42059326171875E-05	0.19024658203125
79	0.19287109375	290.238360267219	1.43890380859375E-05	0.192657470703125
80	0.1953125	290.262760267157	1.49993896484375E-05	0.195068359375
81	0.19775390625	290.287160267095	1.585693359375E-05	0.197509765625
82	0.2001953125	290.311560267034	1.5966796875E-05	0.199981689453125
83	0.20263671875	290.335960266972	1.7193603515625E-05	0.202362060546875
84	0.205078125	290.360360266911	1.7254638671875E-05	0.204803466796875
85	0.20751953125	290.384760266849	1.85211181640625E-05	0.20721435546875
86	0.2099609375	290.409160266787	1.871337890625E-05	0.209625244140625
87	0.21240234375	290.433560266726	1.944580078125E-05	0.21209716796875
88	0.21484375	290.457960266664	1.99951171875E-05	0.2144775390625
89	0.21728515625	290.482360266603	2.04620361328125E-05	0.216949462890625
90	0.2197265625	290.506760266541	2.152099609375E-05	0.2193603515625
91	0.22216796875	290.531160266479	2.12890625E-05	0.2218017578125
92	0.224609375	290.555560266418	2.25860595703125E-05	0.22418212890625
93	0.22705078125	290.579960266356	2.26898193359375E-05	0.2266845703125
94	0.2294921875	290.604360266295	2.36419677734375E-05	0.22906494140625
95	0.23193359375	290.628760266233	2.4090576171875E-05	0.231536865234375
96	0.234375	290.653160266171	2.45819091796875E-05	0.233917236328125
97	0.23681640625	290.67756026611	2.53021240234375E-05	0.236328125
98	0.2392578125	290.701960266048	2.5616455078125E-05	0.238739013671875
99	0.24169921875	290.726360265987	2.70172119140625E-05	0.241241455078125
100	0.244140625	290.750760265925	2.708740234375E-05	0.2435302734375
101	0.24658203125	290.775160265863	2.83660888671875E-05	0.246063232421875
102	0.2490234375	290.799560265802	2.86651611328125E-05	0.248443603515625
103	0.25146484375	290.82396026574	2.90771484375E-05	0.25091552734375
104	0.25390625	290.848360265678	2.98675537109375E-05	0.253265380859375
105	0.25634765625	290.872760265617	3.021240234375E-05	0.255767822265625
106	0.2587890625	290.897160265555	3.1585693359375E-05	0.25872802734375
107	0.26123046875	290.921560265494	3.13934326171875E-05	0.261199951171875
108	0.263671875	290.945960265432	3.27880859375E-05	0.263671875
109	0.26611328125	290.97036026537	3.28369140625E-05	0.266082763671875
110	0.2685546875	290.994760265309	3.3624267578125E-05	0.2684326171875
111	0.27099609375	291.019160265247	3.42620849609375E-05	0.2708740234375
112	0.2734375	291.043560265186	3.45977783203125E-05	0.273406982421875
113	0.27587890625	291.067960265124	3.59100341796875E-05	0.275848388671875
114	0.2783203125	291.092360265062	3.5821533203125E-05	0.278289794921875
115	0.28076171875	291.116760265001	3.717041015625E-05	0.28076171875
116	0.283203125	291.141160264939	3.72589111328125E-05	0.28314208984375
117	0.28564453125	291.165560264878	3.85009765625E-05	0.285614013671875
118	0.2880859375	291.189960264816	3.8897705078125E-05	0.28802490234375
119	0.29052734375	291.214360264754	3.9166259765625E-05	0.290435791015625
120	0.29296875	291.238760264693	3.994140625E-05	0.292877197265625
121	0.29541015625	291.263160264631	4.03076171875E-05	0.295318603515625
122	0.2978515625	291.28756026457	4.1473388671875E-05	0.29779052734375
123	0.30029296875	291.311960264508	4.16107177734375E-05	0.3001708984375
124	0.302734375	291.336360264446	4.27001953125E-05	0.302642822265625
125	0.30517578125	291.360760264385	4.32159423828125E-05	0.30499267578125
126	0.3076171875	291.385160264323	4.3963623046875E-05	0.3074951171875
127	0.31005859375	291.409560264262	4.45648193359375E-05	0.30999755859375
128	0.3125	291.4339602642	4.49371337890625E-05	0.3123779296875
129	0.31494140625	291.458360264138	4.61151123046875E-05	0.314849853515625
130	0.3173828125	291.482760264077	4.61456298828125E-05	0.3172607421875
131	0.31982421875	291.507160264015	4.742431640625E-05	0.319732666015625
132	0.322265625	291.531560263954	4.78485107421875E-05	0.322174072265625
133	0.32470703125	291.555960263892	4.8504638671875E-05	0.324615478515625
134	0.3271484375	291.58036026383	4.9713134765625E-05	0.32708740234375
135	0.32958984375	291.604760263769	4.9835205078125E-05	0.329437255859375
136	0.33203125	291.629160263707	5.096435546875E-05	0.3319091796875
137	0.33447265625	291.653560263646	5.1116943359375E-05	0.334320068359375
138	0.3369140625	291.677960263584	5.2337646484375E-05	0.33673095703125
139	0.33935546875	291.702360263522	5.2398681640625E-05	0.339202880859375
140	0.341796875	291.726760263461	5.3863525390625E-05	0.341644287109375
141	0.34423828125	291.751160263399	5.401611328125E-05	0.3441162109375
142	0.3466796875	291.775560263338	5.4351806640625E-05	0.3465576171875
143	0.34912109375	291.799960263276	5.5419921875E-05	0.3489990234375
144	0.3515625	291.824360263214	5.56640625E-05	0.3514404296875
145	0.35400390625	291.848760263153	5.718994140625E-05	0.353912353515625
146	0.3564453125	291.873160263091	5.718994140625E-05	0.3563232421875
147	0.35888671875	291.89756026303	5.8380126953125E-05	0.358795166015625
148	0.361328125	291.921960262968	5.8990478515625E-05	0.361175537109375
149	0.36376953125	291.946360262906	5.9478759765625E-05	0.363677978515625
150	0.3662109375	291.970760262845	6.0394287109375E-05	0.366119384765625
151	0.36865234375	291.995160262783	6.04248046875E-05	0.3685302734375
152	0.37109375	292.019560262721	6.1676025390625E-05	0.370941162109375
153	0.37353515625	292.04396026266	6.2225341796875E-05	0.373382568359375
154	0.3759765625	292.068360262598	6.3232421875E-05	0.375885009765625
155	0.37841796875	292.092760262537	6.3751220703125E-05	0.37835693359375
156	0.380859375	292.117160262475	6.4453125E-05	0.38067626953125
157	0.38330078125	292.141560262413	6.536865234375E-05	0.3831787109375
158	0.3857421875	292.165960262352	6.597900390625E-05	0.385589599609375
159	0.38818359375	292.19036026229	6.72607421875E-05	0.38800048828125
160	0.390625	292.214760262229	6.7535400390625E-05	0.39044189453125
161	0.39306640625	292.239160262167	6.866455078125E-05	0.39288330078125
162	0.3955078125	292.263560262105	6.8817138671875E-05	0.395416259765625
163	0.39794921875	292.287960262044	7.0037841796875E-05	0.397857666015625
164	0.400390625	292.312360261982	7.049560546875E-05	0.400238037109375
165	0.40283203125	292.336760261921	7.098388671875E-05	0.40264892578125
166	0.4052734375	292.361160261859	7.2418212890625E-05	0.4051513671875
167	0.40771484375	292.385560261797	7.2052001953125E-05	0.407562255859375
168	0.41015625	292.409960261736	7.379150390625E-05	0.40997314453125
169	0.41259765625	292.434360261674	7.4432373046875E-05	0.412445068359375
170	0.4150390625	292.458760261613	7.5225830078125E-05	0.41485595703125
171	0.41748046875	292.483160261551	7.5836181640625E-05	0.4173583984375
172	0.419921875	292.507560261489	7.647705078125E-05	0.4197998046875
173	0.42236328125	292.531960261428	7.769775390625E-05	0.422149658203125
174	0.4248046875	292.556360261366	7.7972412109375E-05	0.424652099609375
175	0.42724609375	292.580760261305	7.8765869140625E-05	0.42706298828125
176	0.4296875	292.605160261243	7.9376220703125E-05	0.429534912109375
177	0.43212890625	292.629560261181	8.087158203125E-05	0.4320068359375
178	0.4345703125	292.65396026112	8.14208984375E-05	0.434417724609375
179	0.43701171875	292.678360261058	8.209228515625E-05	0.43682861328125
180	0.439453125	292.702760260997	8.306884765625E-05	0.43927001953125
181	0.44189453125	292.727160260935	8.38623046875E-05	0.4417724609375
182	0.4443359375	292.751560260873	8.4442138671875E-05	0.444183349609375
183	0.44677734375	292.775960260812	8.453369140625E-05	0.446624755859375
184	0.44921875	292.80036026075	8.6395263671875E-05	0.44903564453125
185	0.45166015625	292.824760260689	8.746337890625E-05	0.45147705078125
186	0.4541015625	292.849160260627	8.8653564453125E-05	0.453887939453125
187	0.45654296875	292.873560260565	8.9508056640625E-05	0.456390380859375
188	0.458984375	292.897960260504	8.99658203125E-05	0.45880126953125
189	0.46142578125	292.922360260442	9.02099609375E-05	0.461212158203125
190	0.4638671875	292.946760260381	9.0362548828125E-05	0.463623046875
191	0.46630859375	292.971160260319	9.2071533203125E-05	0.46612548828125
192	0.46875	292.995560260257	9.2559814453125E-05	0.468505859375
193	0.47119140625	293.019960260196	9.356689453125E-05	0.470977783203125
194	0.4736328125	293.044360260134	9.423828125E-05	0.473388671875
195	0.47607421875	293.068760260073	9.4970703125E-05	0.475921630859375
196	0.478515625	293.093160260011	9.6649169921875E-05	0.478302001953125
197	0.48095703125	293.117560259949	9.7442626953125E-05	0.480743408203125
198	0.4833984375	293.141960259888	9.844970703125E-05	0.483184814453125
199	0.48583984375	293.166360259826	9.8724365234375E-05	0.485595703125
200	0.48828125	293.190760259764	0.000100372314453125	0.488067626953125
201	0.49072265625	293.215160259703	0.0001009521484375	0.490509033203125
202	0.4931640625	293.239560259641	0.000102386474609375	0.492950439453125
203	0.49560546875	293.26396025958	0.000103179931640625	0.495391845703125
204	0.498046875	293.288360259518	0.000104339599609375	0.49786376953125
205	0.50048828125	293.312760259456	0.000105743408203125	0.50018310546875
206	0.5029296875	293.337160259395	0.000106781005859375	0.502685546875
207	0.50537109375	293.361560259333	0.000107940673828125	0.505126953125
208	0.5078125	293.385960259272	0.00010882568359375	0.507537841796875
209	0.51025390625	293.41036025921	0.000110198974609375	0.510040283203125
210	0.5126953125	293.434760259148	0.00011114501953125	0.512481689453125
211	0.51513671875	293.459160259087	0.000111724853515625	0.514892578125
212	0.517578125	293.483560259025	0.00011322021484375	0.517333984375
213	0.52001953125	293.507960258964	0.00011431884765625	0.519744873046875
214	0.5224609375	293.532360258902	0.00011602783203125	0.522186279296875
215	0.52490234375	293.55676025884	0.000116485595703125	0.524627685546875
216	0.52734375	293.581160258779	0.000117919921875	0.527069091796875
217	0.52978515625	293.605560258717	0.000118896484375	0.52947998046875
218	0.5322265625	293.629960258656	0.000120208740234375	0.531982421875
219	0.53466796875	293.654360258594	0.000121612548828125	0.53436279296875
220	0.537109375	293.678760258532	0.000122161865234375	0.536834716796875
221	0.53955078125	293.703160258471	0.000123931884765625	0.539276123046875
222	0.5419921875	293.727560258409	0.0001248779296875	0.541748046875
223	0.54443359375	293.751960258348	0.000126739501953125	0.544219970703125
224	0.546875	293.776360258286	0.00012786865234375	0.546600341796875
225	0.54931640625	293.800760258224	0.00012939453125	0.548980712890625
226	0.5517578125	293.825160258163	0.000131256103515625	0.55145263671875
227	0.55419921875	293.849560258101	0.0001322021484375	0.55389404296875
228	0.556640625	293.87396025804	0.0001331787109375	0.55633544921875
229	0.55908203125	293.898360257978	0.00013427734375	0.55877685546875
230	0.5615234375	293.922760257916	0.00013653564453125	0.56121826171875
231	0.56396484375	293.947160257855	0.0001378173828125	0.563629150390625
232	0.56640625	293.971560257793	0.00013909912109375	0.56610107421875
233	0.56884765625	293.995960257732	0.00014007568359375	0.56854248046875
234	0.5712890625	294.02036025767	0.00014129638671875	0.570953369140625
235	0.57373046875	294.044760257608	0.00014300537109375	0.5733642578125
236	0.576171875	294.069160257547	0.000144439697265625	0.5758056640625
237	0.57861328125	294.093560257485	0.00014691162109375	0.57818603515625
238	0.5810546875	294.117960257424	0.000147979736328125	0.580718994140625
239	0.58349609375	294.142360257362	0.0001497802734375	0.5831298828125
240	0.5859375	294.1667602573	0.000151092529296875	0.5855712890625
241	0.58837890625	294.191160257239	0.000152679443359375	0.5880126953125
242	0.5908203125	294.215560257177	0.000154693603515625	0.5904541015625
243	0.59326171875	294.239960257116	0.000156097412109375	0.5928955078125
244	0.595703125	294.264360257054	0.000158233642578125	0.595245361328125
245	0.59814453125	294.288760256992	0.000159393310546875	0.5977783203125
246	0.6005859375	294.313160256931	0.00016156005859375	0.60015869140625
247	0.60302734375	294.337560256869	0.0001632080078125	0.60260009765625
248	0.60546875	294.361960256807	0.00016485595703125	0.60504150390625
249	0.60791015625	294.386360256746	0.0001669921875	0.60748291015625
250	0.6103515625	294.410760256684	0.000168670654296875	0.60992431640625
251	0.61279296875	294.435160256623	0.00017169189453125	0.612274169921875
252	0.615234375	294.459560256561	0.000173004150390625	0.614776611328125
253	0.61767578125	294.483960256499	0.000175018310546875	0.617218017578125
254	0.6201171875	294.508360256438	0.000176666259765625	0.61962890625
255	0.62255859375	294.532760256376	0.00017913818359375	0.6220703125
256	0.625	294.557160256315	0.000181854248046875	0.62451171875
257	0.62744140625	294.581560256253	0.000182525634765625	0.626953125
258	0.6298828125	294.605960256191	0.0001849365234375	0.629425048828125
259	0.63232421875	294.63036025613	0.000186767578125	0.6318359375
260	0.634765625	294.654760256068	0.000189453125	0.63427734375
261	0.63720703125	294.679160256007	0.000191192626953125	0.63671875
262	0.6396484375	294.703560255945	0.000193572998046875	0.639129638671875
263	0.64208984375	294.727960255883	0.000195648193359375	0.641571044921875
264	0.64453125	294.752360255822	0.000198089599609375	0.64398193359375
265	0.64697265625	294.77676025576	0.00020147705078125	0.646453857421875
266	0.6494140625	294.801160255699	0.000202880859375	0.648834228515625
267	0.65185546875	294.825560255637	0.000206939697265625	0.65130615234375
268	0.654296875	294.849960255575	0.0002073974609375	0.653717041015625
269	0.65673828125	294.874360255514	0.00021087646484375	0.65618896484375
270	0.6591796875	294.898760255452	0.00021331787109375	0.658599853515625
271	0.66162109375	294.923160255391	0.00021551513671875	0.6610107421875
272	0.6640625	294.947560255329	0.000218231201171875	0.6634521484375
273	0.66650390625	294.971960255267	0.000220123291015625	0.6658935546875
274	0.6689453125	294.996360255206	0.00022393798828125	0.668304443359375
275	0.67138671875	295.020760255144	0.000226104736328125	0.670745849609375
276	0.673828125	295.045160255083	0.00022998046875	0.6732177734375
277	0.67626953125	295.069560255021	0.000232666015625	0.675567626953125
278	0.6787109375	295.093960254959	0.000236572265625	0.67803955078125
279	0.68115234375	295.118360254898	0.0002391357421875	0.680419921875
280	0.68359375	295.142760254836	0.00024114990234375	0.682891845703125
281	0.68603515625	295.167160254775	0.0002449951171875	0.685302734375
282	0.6884765625	295.191560254713	0.000246978759765625	0.687774658203125
283	0.69091796875	295.215960254651	0.0002508544921875	0.690185546875
284	0.693359375	295.24036025459	0.00025335693359375	0.692657470703125
285	0.69580078125	295.264760254528	0.000256072998046875	0.695037841796875
286	0.6982421875	295.289160254467	0.00025958251953125	0.697418212890625
287	0.70068359375	295.313560254405	0.000262603759765625	0.69989013671875
288	0.703125	295.337960254343	0.000266082763671875	0.702362060546875
289	0.70556640625	295.362360254282	0.00026898193359375	0.7047119140625
290	0.7080078125	295.38676025422	0.0002740478515625	0.7071533203125
291	0.71044921875	295.411160254159	0.0002762451171875	0.709625244140625
292	0.712890625	295.435560254097	0.00027984619140625	0.7120361328125
293	0.71533203125	295.459960254035	0.000283111572265625	0.7144775390625
294	0.7177734375	295.484360253974	0.00028680419921875	0.716888427734375
295	0.72021484375	295.508760253912	0.000290679931640625	0.719329833984375
296	0.72265625	295.53316025385	0.000293914794921875	0.7218017578125
297	0.72509765625	295.557560253789	0.00029864501953125	0.72418212890625
298	0.7275390625	295.581960253727	0.000303009033203125	0.7265625
299	0.72998046875	295.606360253666	0.000306640625	0.729766845703125
300	0.732421875	295.630760253604	0.000310302734375	0.732208251953125
301	0.73486328125	295.655160253542	0.000314727783203125	0.73455810546875
302	0.7373046875	295.679560253481	0.000319000244140625	0.737030029296875
303	0.73974609375	295.703960253419	0.000322662353515625	0.739501953125
304	0.7421875	295.728360253358	0.000326416015625	0.741943359375
305	0.74462890625	295.752760253296	0.00033087158203125	0.74432373046875
306	0.7470703125	295.777160253234	0.000335968017578125	0.746734619140625
307	0.74951171875	295.801560253173	0.000340545654296875	0.749267578125
308	0.751953125	295.825960253111	0.000345428466796875	0.750732421875
309	0.75439453125	295.85036025305	0.000349609375	0.7537841796875
310	0.7568359375	295.874760252988	0.000354400634765625	0.75592041015625
311	0.75927734375	295.899160252926	0.000358734130859375	0.758056640625
312	0.76171875	295.923560252865	0.000363616943359375	0.76141357421875
313	0.76416015625	295.947960252803	0.000367706298828125	0.76385498046875
314	0.7666015625	295.972360252742	0.00037286376953125	0.7666015625
315	0.76904296875	295.99676025268	0.00037841796875	0.76812744140625
316	0.771484375	296.021160252618	0.000383026123046875	0.77056884765625
317	0.77392578125	296.045560252557	0.000388153076171875	0.77301025390625
318	0.7763671875	296.069960252495	0.000393829345703125	0.7763671875
319	0.77880859375	296.094360252434	0.000398681640625	0.7781982421875
320	0.78125	296.118760252372	0.000404541015625	0.780029296875
321	0.78369140625	296.14316025231	0.000410247802734375	0.782470703125
322	0.7861328125	296.167560252249	0.000416534423828125	0.78521728515625
323	0.78857421875	296.191960252187	0.00042156982421875	0.78765869140625
324	0.791015625	296.216360252126	0.00042718505859375	0.79010009765625
325	0.79345703125	296.240760252064	0.000433746337890625	0.79254150390625
326	0.7958984375	296.265160252002	0.000439910888671875	0.7952880859375
327	0.79833984375	296.289560251941	0.000446380615234375	0.797119140625
328	0.80078125	296.313960251879	0.0004522705078125	0.8001708984375
329	0.80322265625	296.338360251818	0.000459197998046875	0.802001953125
330	0.8056640625	296.362760251756	0.00046533203125	0.80474853515625
331	0.80810546875	296.387160251694	0.000471771240234375	0.8074951171875
332	0.810546875	296.411560251633	0.000479034423828125	0.81024169921875
333	0.81298828125	296.435960251571	0.000484130859375	0.8123779296875
334	0.8154296875	296.46036025151	0.000491973876953125	0.814208984375
335	0.81787109375	296.484760251448	0.00049847412109375	0.816650390625
336	0.8203125	296.509160251386	0.00050628662109375	0.8197021484375
337	0.82275390625	296.533560251325	0.0005126953125	0.82244873046875
338	0.8251953125	296.557960251263	0.00052032470703125	0.82427978515625
339	0.82763671875	296.582360251202	0.00052703857421875	0.8270263671875
340	0.830078125	296.60676025114	0.0005340576171875	0.828857421875
341	0.83251953125	296.631160251078	0.00054229736328125	0.8319091796875
342	0.8349609375	296.655560251017	0.00054901123046875	0.83404541015625
343	0.83740234375	296.679960250955	0.000557861328125	0.83648681640625
344	0.83984375	296.704360250894	0.000565185546875	0.83831787109375
345	0.84228515625	296.728760250832	0.00057373046875	0.84136962890625
346	0.8447265625	296.75316025077	0.0005810546875	0.84442138671875
347	0.84716796875	296.777560250709	0.00058990478515625	0.84625244140625
348	0.849609375	296.801960250647	0.00059814453125	0.8489990234375
349	0.85205078125	296.826360250585	0.00060699462890625	0.8514404296875
350	0.8544921875	296.850760250524	0.000615234375	0.853271484375
351	0.85693359375	296.875160250462	0.000623779296875	0.8563232421875
352	0.859375	296.899560250401	0.00063262939453125	0.8587646484375
353	0.86181640625	296.923960250339	0.0006414794921875	0.8612060546875
354	0.8642578125	296.948360250277	0.000650634765625	0.86334228515625
355	0.86669921875	296.972760250216	0.0006597900390625	0.865478515625
356	0.869140625	296.997160250154	0.00066986083984375	0.86822509765625
357	0.87158203125	297.021560250093	0.000679931640625	0.8709716796875
358	0.8740234375	297.045960250031	0.00068939208984375	0.8734130859375
359	0.87646484375	297.070360249969	0.00069976806640625	0.8758544921875
360	0.87890625	297.094760249908	0.00071014404296875	0.87799072265625
361	0.88134765625	297.119160249846	0.00072113037109375	0.88043212890625
362	0.8837890625	297.143560249785	0.000731201171875	0.882568359375
363	0.88623046875	297.167960249723	0.00074188232421875	0.885009765625
364	0.888671875	297.192360249661	0.00075225830078125	0.88775634765625
365	0.89111328125	297.2167602496	0.00076324462890625	0.89019775390625
366	0.8935546875	297.241160249538	0.0007745361328125	0.89263916015625
367	0.89599609375	297.265560249477	0.0007861328125	0.89508056640625
368	0.8984375	297.289960249415	0.00079803466796875	0.89813232421875
369	0.90087890625	297.314360249353	0.0008099365234375	0.899658203125
370	0.9033203125	297.338760249292	0.00082183837890625	0.9027099609375
371	0.90576171875	297.36316024923	0.0008349609375	0.904541015625
372	0.908203125	297.387560249169	0.00084686279296875	0.9075927734375
373	0.91064453125	297.411960249107	0.00086029052734375	0.909423828125
374	0.9130859375	297.436360249045	0.00087249755859375	0.91217041015625
375	0.91552734375	297.460760248984	0.0008856201171875	0.9149169921875
376	0.91796875	297.485160248922	0.0009002685546875	0.91705322265625
377	0.92041015625	297.509560248861	0.00091339111328125	0.919189453125
378	0.9228515625	297.533960248799	0.00092803955078125	0.921630859375
379	0.92529296875	297.558360248737	0.00094207763671875	0.924072265625
380	0.927734375	297.582760248676	0.00095703125	0.92681884765625
381	0.93017578125	297.607160248614	0.0009710693359375	0.92864990234375
382	0.9326171875	297.631560248553	0.0009869384765625	0.93170166015625
383	0.93505859375	297.655960248491	0.00100189208984375	0.93475341796875
384	0.9375	297.680360248429	0.00101776123046875	0.93658447265625
385	0.93994140625	297.704760248368	0.001033935546875	0.938720703125
386	0.9423828125	297.729160248306	0.00105010986328125	0.941162109375
387	0.94482421875	297.753560248245	0.00106842041015625	0.94390869140625
388	0.947265625	297.777960248183	0.00108489990234375	0.94635009765625
389	0.94970703125	297.802360248121	0.0011029052734375	0.9490966796875
390	0.9521484375	297.82676024806	0.00111968994140625	0.950927734375
391	0.95458984375	297.851160247998	0.00113861083984375	0.95367431640625
392	0.95703125	297.875560247937	0.00115631103515625	0.955810546875
393	0.95947265625	297.899960247875	0.001175537109375	0.958251953125
394	0.9619140625	297.924360247813	0.001195068359375	0.96099853515625
395	0.96435546875	297.948760247752	0.00121429443359375	0.963134765625
396	0.966796875	297.97316024769	0.0012347412109375	0.96588134765625
397	0.96923828125	297.997560247628	0.00125518798828125	0.96832275390625
398	0.9716796875	298.021960247567	0.00127685546875	0.9710693359375
399	0.97412109375	298.046360247505	0.00129791259765625	0.97320556640625
400	0.9765625	298.070760247444	0.00131988525390625	0.97564697265625
401	0.97900390625	298.095160247382	0.0013421630859375	0.9783935546875
402	0.9814453125	298.11956024732	0.00136444091796875	0.98052978515625
403	0.98388671875	298.143960247259	0.001387939453125	0.9832763671875
404	0.986328125	298.168360247197	0.001412353515625	0.9857177734375
405	0.98876953125	298.192760247136	0.00143646240234375	0.987548828125
406	0.9912109375	298.217160247074	0.00146148681640625	0.9906005859375
407	0.99365234375	298.241560247012	0.00148651123046875	0.9930419921875
408	0.99609375	298.265960246951	0.001512451171875	0.99517822265625
409	0.99853515625	298.290360246889	0.00153839111328125	0.9979248046875
410	1.0009765625	298.314760246828	0.0015655517578125	1.0003662109375
411	1.00341796875	298.339160246766	0.0015924072265625	1.002197265625
412	1.005859375	298.363560246704	0.0016204833984375	1.004638671875
413	1.00830078125	298.387960246643	0.00164886474609375	1.00738525390625
414	1.0107421875	298.412360246581	0.0016778564453125	1.009521484375
415	1.01318359375	298.43676024652	0.00170684814453125	1.0125732421875
416	1.015625	298.461160246458	0.0017364501953125	1.01409912109375
417	1.01806640625	298.485560246396	0.001767578125	1.01776123046875
418	1.0205078125	298.509960246335	0.0017987060546875	1.01959228515625
419	1.02294921875	298.534360246273	0.00183074951171875	1.02203369140625
420	1.025390625	298.558760246212	0.00186279296875	1.02447509765625
421	1.02783203125	298.58316024615	0.00189605712890625	1.026611328125
422	1.0302734375	298.607560246088	0.00192962646484375	1.029052734375
423	1.03271484375	298.631960246027	0.0019635009765625	1.03179931640625
424	1.03515625	298.656360245965	0.001998291015625	1.03424072265625
425	1.03759765625	298.680760245904	0.00203399658203125	1.03668212890625
426	1.0400390625	298.705160245842	0.0020703125	1.038818359375
427	1.04248046875	298.72956024578	0.0021063232421875	1.041259765625
428	1.044921875	298.753960245719	0.00214385986328125	1.04400634765625
429	1.04736328125	298.778360245657	0.00218170166015625	1.046142578125
430	1.0498046875	298.802760245596	0.00222015380859375	1.048583984375
431	1.05224609375	298.827160245534	0.002259521484375	1.051025390625
432	1.0546875	298.851560245472	0.00229949951171875	1.05377197265625
433	1.05712890625	298.875960245411	0.0023394775390625	1.0565185546875
434	1.0595703125	298.900360245349	0.00238128662109375	1.0589599609375
435	1.06201171875	298.924760245288	0.002423095703125	1.06109619140625
436	1.064453125	298.949160245226	0.00246490478515625	1.06353759765625
437	1.06689453125	298.973560245164	0.0025079345703125	1.06597900390625
438	1.0693359375	298.997960245103	0.00255126953125	1.06842041015625
439	1.07177734375	299.022360245041	0.00259490966796875	1.0711669921875
440	1.07421875	299.04676024498	0.0026397705078125	1.0736083984375
441	1.07666015625	299.071160244918	0.00268463134765625	1.075439453125
442	1.0791015625	299.095560244856	0.0027301025390625	1.0784912109375
443	1.08154296875	299.119960244795	0.00277679443359375	1.0809326171875
444	1.083984375	299.144360244733	0.0028240966796875	1.082763671875
445	1.08642578125	299.168760244671	0.0028717041015625	1.08551025390625
446	1.0888671875	299.19316024461	0.00291961669921875	1.08795166015625
447	1.09130859375	299.217560244548	0.00296844482421875	1.08978271484375
448	1.09375	299.241960244487	0.00301788330078125	1.0931396484375
449	1.09619140625	299.266360244425	0.00306732177734375	1.094970703125
450	1.0986328125	299.290760244363	0.00311798095703125	1.09771728515625
451	1.10107421875	299.315160244302	0.0031689453125	1.10015869140625
452	1.103515625	299.33956024424	0.0032196044921875	1.10198974609375
453	1.10595703125	299.363960244179	0.00327178955078125	1.10504150390625
454	1.1083984375	299.388360244117	0.00332427978515625	1.10748291015625
455	1.11083984375	299.412760244055	0.00337615966796875	1.1102294921875
456	1.11328125	299.437160243994	0.003428955078125	1.11236572265625
457	1.11572265625	299.461560243932	0.00348236083984375	1.11480712890625
458	1.1181640625	299.485960243871	0.0035357666015625	1.116943359375
459	1.12060546875	299.510360243809	0.00358856201171875	1.11968994140625
460	1.123046875	299.534760243747	0.00364166259765625	1.121826171875
461	1.12548828125	299.559160243686	0.00369537353515625	1.124267578125
462	1.1279296875	299.583560243624	0.003748779296875	1.1273193359375
463	1.13037109375	299.607960243563	0.0038018798828125	1.1297607421875
464	1.1328125	299.632360243501	0.00385406494140625	1.13189697265625
465	1.13525390625	299.656760243439	0.00390594482421875	1.13433837890625
466	1.1376953125	299.681160243378	0.00395721435546875	1.136474609375
467	1.14013671875	299.705560243316	0.00400787353515625	1.13922119140625
468	1.142578125	299.729960243255	0.0040570068359375	1.14166259765625
469	1.14501953125	299.754360243193	0.00410552978515625	1.14349365234375
470	1.1474609375	299.778760243131	0.00415313720703125	1.14654541015625
471	1.14990234375	299.80316024307	0.00419891357421875	1.14959716796875
472	1.15234375	299.827560243008	0.00424346923828125	1.15142822265625
473	1.15478515625	299.851960242947	0.00428680419921875	1.1541748046875
474	1.1572265625	299.876360242885	0.00432861328125	1.156005859375
475	1.15966796875	299.900760242823	0.00436920166015625	1.1590576171875
476	1.162109375	299.925160242762	0.0044085693359375	1.160888671875
477	1.16455078125	299.9495602427	0.0044464111328125	1.1639404296875
478	1.1669921875	299.973960242639	0.00448272705078125	1.16668701171875
479	1.16943359375	299.998360242577	0.00451812744140625	1.168212890625
480	1.171875	300.022760242515	0.004552001953125	1.17095947265625
481	1.17431640625	300.047160242454	0.00458526611328125	1.173095703125
482	1.1767578125	300.071560242392	0.00461669921875	1.17584228515625
483	1.17919921875	300.095960242331	0.00464752197265625	1.17767333984375
484	1.181640625	300.120360242269	0.0046771240234375	1.18072509765625
485	1.18408203125	300.144760242207	0.004705810546875	1.18255615234375
486	1.1865234375	300.169160242146	0.00473358154296875	1.185302734375
487	1.18896484375	300.193560242084	0.00476043701171875	1.18804931640625
488	1.19140625	300.217960242023	0.00478668212890625	1.190185546875
489	1.19384765625	300.242360241961	0.00481201171875	1.19293212890625
490	1.1962890625	300.266760241899	0.00483673095703125	1.19476318359375
491	1.19873046875	300.291160241838	0.00486053466796875	1.197509765625
492	1.201171875	300.315560241776	0.00488372802734375	1.19964599609375
493	1.19873046875	300.339960241714	0.00486053466796875	1.197509765625
494	1.1962890625	300.364360241653	0.00483673095703125	1.195068359375
495	1.19384765625	300.388760241591	0.00481201171875	1.192626953125
496	1.19140625	300.41316024153	0.004786376953125	1.190185546875
497	1.18896484375	300.437560241468	0.00475982666015625	1.187744140625
498	1.1865234375	300.461960241406	0.00473297119140625	1.185302734375
499	1.18408203125	300.486360241345	0.00470489501953125	1.18316650390625
500	1.181640625	300.510760241283	0.0046759033203125	1.18072509765625
501	1.17919921875	300.535160241222	0.00464599609375	1.17828369140625
502	1.1767578125	300.55956024116	0.0046148681640625	1.175537109375
503	1.17431640625	300.583960241098	0.00458251953125	1.17340087890625
504	1.171875	300.608360241037	0.00454925537109375	1.170654296875
505	1.16943359375	300.632760240975	0.00451446533203125	1.168212890625
506	1.1669921875	300.657160240914	0.004478759765625	1.165771484375
507	1.16455078125	300.681560240852	0.00444183349609375	1.163330078125
508	1.162109375	300.70596024079	0.00440338134765625	1.16119384765625
509	1.15966796875	300.730360240729	0.004364013671875	1.158447265625
510	1.1572265625	300.754760240667	0.0043218994140625	1.156005859375
511	1.15478515625	300.779160240606	0.00427947998046875	1.153564453125
512	1.15234375	300.803560240544	0.00423492431640625	1.1517333984375
513	1.14990234375	300.827960240482	0.00418975830078125	1.14898681640625
514	1.1474609375	300.852360240421	0.0041424560546875	1.146240234375
515	1.14501953125	300.876760240359	0.00409332275390625	1.14410400390625
516	1.142578125	300.901160240298	0.004044189453125	1.14166259765625
517	1.14013671875	300.925560240236	0.003992919921875	1.13922119140625
518	1.1376953125	300.949960240174	0.003941650390625	1.136474609375
519	1.13525390625	300.974360240113	0.00388916015625	1.13433837890625
520	1.1328125	300.998760240051	0.00383575439453125	1.131591796875
521	1.13037109375	301.02316023999	0.00378204345703125	1.12884521484375
522	1.1279296875	301.047560239928	0.00372833251953125	1.1273193359375
523	1.12548828125	301.071960239866	0.003673095703125	1.1248779296875
524	1.123046875	301.096360239805	0.0036175537109375	1.121826171875
525	1.12060546875	301.120760239743	0.003563232421875	1.119384765625
526	1.1181640625	301.145160239682	0.00350799560546875	1.11663818359375
527	1.11572265625	301.16956023962	0.0034539794921875	1.11480712890625
528	1.11328125	301.193960239558	0.00339813232421875	1.11236572265625
529	1.11083984375	301.218360239497	0.00334442138671875	1.10992431640625
530	1.1083984375	301.242760239435	0.0032904052734375	1.10748291015625
531	1.10595703125	301.267160239374	0.0032366943359375	1.10443115234375
532	1.103515625	301.291560239312	0.0031829833984375	1.10260009765625
533	1.10107421875	301.31596023925	0.00313018798828125	1.099853515625
534	1.0986328125	301.340360239189	0.00307861328125	1.09710693359375
535	1.09619140625	301.364760239127	0.00302581787109375	1.09527587890625
536	1.09375	301.389160239066	0.00297454833984375	1.092529296875
537	1.09130859375	301.413560239004	0.0029229736328125	1.0906982421875
538	1.0888671875	301.437960238942	0.002872314453125	1.087646484375
539	1.08642578125	301.462360238881	0.00282257080078125	1.085205078125
540	1.083984375	301.486760238819	0.00277252197265625	1.08306884765625
541	1.08154296875	301.511160238757	0.00272430419921875	1.08062744140625
542	1.0791015625	301.535560238696	0.00267486572265625	1.07818603515625
543	1.07666015625	301.559960238634	0.00262725830078125	1.0760498046875
544	1.07421875	301.584360238573	0.002579345703125	1.072998046875
545	1.07177734375	301.608760238511	0.00253265380859375	1.07086181640625
546	1.0693359375	301.633160238449	0.00248687744140625	1.068115234375
547	1.06689453125	301.657560238388	0.0024407958984375	1.06597900390625
548	1.064453125	301.681960238326	0.00239593505859375	1.06353759765625
549	1.06201171875	301.706360238265	0.0023516845703125	1.06109619140625
550	1.0595703125	301.730760238203	0.00230865478515625	1.058349609375
551	1.05712890625	301.755160238141	0.0022650146484375	1.0565185546875
552	1.0546875	301.77956023808	0.002222900390625	1.05316162109375
553	1.05224609375	301.803960238018	0.0021807861328125	1.05072021484375
554	1.0498046875	301.828360237957	0.002139892578125	1.048583984375
555	1.04736328125	301.852760237895	0.00209930419921875	1.0467529296875
556	1.044921875	301.877160237833	0.0020587158203125	1.043701171875
557	1.04248046875	301.901560237772	0.0020196533203125	1.0418701171875
558	1.0400390625	301.92596023771	0.00198089599609375	1.03912353515625
559	1.03759765625	301.950360237649	0.00194305419921875	1.03668212890625
560	1.03515625	301.974760237587	0.00190521240234375	1.0345458984375
561	1.03271484375	301.999160237525	0.00186920166015625	1.03179931640625
562	1.0302734375	302.023560237464	0.00183197021484375	1.0296630859375
563	1.02783203125	302.047960237402	0.00179656982421875	1.026611328125
564	1.025390625	302.072360237341	0.00176177978515625	1.02447509765625
565	1.02294921875	302.096760237279	0.0017266845703125	1.02203369140625
566	1.0205078125	302.121160237217	0.0016937255859375	1.0198974609375
567	1.01806640625	302.145560237156	0.00165985107421875	1.01715087890625
568	1.015625	302.169960237094	0.00162750244140625	1.0150146484375
569	1.01318359375	302.194360237033	0.00159637451171875	1.01226806640625
570	1.0107421875	302.218760236971	0.00156524658203125	1.0101318359375
571	1.00830078125	302.243160236909	0.0015350341796875	1.00738525390625
572	1.005859375	302.267560236848	0.00150543212890625	1.00494384765625
573	1.00341796875	302.291960236786	0.001475830078125	1.00250244140625
574	1.0009765625	302.316360236725	0.00144622802734375	1.00006103515625
575	0.99853515625	302.340760236663	0.00141815185546875	0.997314453125
576	0.99609375	302.365160236601	0.001390380859375	0.994873046875
577	0.99365234375	302.38956023654	0.00136260986328125	0.9930419921875
578	0.9912109375	302.413960236478	0.00133636474609375	0.99090576171875
579	0.98876953125	302.438360236417	0.001309814453125	0.98785400390625
580	0.986328125	302.462760236355	0.00128509521484375	0.9857177734375
581	0.98388671875	302.487160236293	0.001258544921875	0.9832763671875
582	0.9814453125	302.511560236232	0.00123443603515625	0.97991943359375
583	0.97900390625	302.53596023617	0.00121063232421875	0.9783935546875
584	0.9765625	302.560360236109	0.00118743896484375	0.97564697265625
585	0.97412109375	302.584760236047	0.00116485595703125	0.97320556640625
586	0.9716796875	302.609160235985	0.0011419677734375	0.97076416015625
587	0.96923828125	302.633560235924	0.00112091064453125	0.96832275390625
588	0.966796875	302.657960235862	0.00109893798828125	0.96588134765625
589	0.96435546875	302.682360235801	0.0010784912109375	0.963134765625
590	0.9619140625	302.706760235739	0.001058349609375	0.960693359375
591	0.95947265625	302.731160235677	0.0010382080078125	0.9588623046875
592	0.95703125	302.755560235616	0.0010186767578125	0.9564208984375
593	0.95458984375	302.779960235554	0.00099945068359375	0.95306396484375
594	0.9521484375	302.804360235492	0.00098175048828125	0.95062255859375
595	0.94970703125	302.828760235431	0.000963134765625	0.94879150390625
596	0.947265625	302.853160235369	0.00094635009765625	0.9466552734375
597	0.94482421875	302.877560235308	0.0009283447265625	0.94390869140625
598	0.9423828125	302.901960235246	0.00091156005859375	0.94207763671875
599	0.93994140625	302.926360235184	0.00089569091796875	0.93902587890625
600	0.9375	302.950760235123	0.00087890625	0.9375
601	0.93505859375	302.975160235061	0.0008636474609375	0.9344482421875
602	0.9326171875	302.999560235	0.0008477783203125	0.93170166015625
603	0.93017578125	303.023960234938	0.0008331298828125	0.92864990234375
604	0.927734375	303.048360234876	0.0008184814453125	0.92681884765625
605	0.92529296875	303.072760234815	0.0008038330078125	0.92498779296875
606	0.9228515625	303.097160234753	0.00079071044921875	0.921630859375
607	0.92041015625	303.121560234692	0.00077667236328125	0.91949462890625
608	0.91796875	303.14596023463	0.00076416015625	0.9173583984375
609	0.91552734375	303.170360234568	0.00075042724609375	0.914306640625
610	0.9130859375	303.194760234507	0.00073883056640625	0.91278076171875
611	0.91064453125	303.219160234445	0.0007257080078125	0.909423828125
612	0.908203125	303.243560234384	0.00071380615234375	0.9075927734375
613	0.90576171875	303.267960234322	0.00070159912109375	0.904541015625
614	0.9033203125	303.29236023426	0.00069000244140625	0.9027099609375
615	0.90087890625	303.316760234199	0.00067962646484375	0.9002685546875
616	0.8984375	303.341160234137	0.000667724609375	0.89752197265625
617	0.89599609375	303.365560234076	0.00065673828125	0.894775390625
618	0.8935546875	303.389960234014	0.00064666748046875	0.8929443359375
619	0.89111328125	303.414360233952	0.0006365966796875	0.89019775390625
620	0.888671875	303.438760233891	0.000626220703125	0.88775634765625
621	0.88623046875	303.463160233829	0.00061676025390625	0.8856201171875
622	0.8837890625	303.487560233768	0.00060638427734375	0.8831787109375
623	0.88134765625	303.511960233706	0.000595703125	0.880126953125
624	0.87890625	303.536360233644	0.0005877685546875	0.87799072265625
625	0.87646484375	303.560760233583	0.00057830810546875	0.87554931640625
626	0.8740234375	303.585160233521	0.00056976318359375	0.87310791015625
627	0.87158203125	303.60956023346	0.00056121826171875	0.870361328125
628	0.869140625	303.633960233398	0.00055267333984375	0.8685302734375
629	0.86669921875	303.658360233336	0.00054473876953125	0.8660888671875
630	0.8642578125	303.682760233275	0.0005364990234375	0.86334228515625
631	0.86181640625	303.707160233213	0.000528564453125	0.8599853515625
632	0.859375	303.731560233152	0.00052032470703125	0.85845947265625
633	0.85693359375	303.75596023309	0.00051300048828125	0.85601806640625
634	0.8544921875	303.780360233028	0.00050567626953125	0.85357666015625
635	0.85205078125	303.804760232967	0.000497894287109375	0.85113525390625
636	0.849609375	303.829160232905	0.000489837646484375	0.848388671875
637	0.84716796875	303.853560232844	0.00048309326171875	0.84686279296875
638	0.8447265625	303.877960232782	0.000476348876953125	0.84381103515625
639	0.84228515625	303.90236023272	0.000470306396484375	0.841064453125
640	0.83984375	303.926760232659	0.000464080810546875	0.8392333984375
641	0.83740234375	303.951160232597	0.000457427978515625	0.8367919921875
642	0.8349609375	303.975560232535	0.000451324462890625	0.83404541015625
643	0.83251953125	303.999960232474	0.000444610595703125	0.83160400390625
644	0.830078125	304.024360232412	0.000437774658203125	0.82977294921875
645	0.82763671875	304.048760232351	0.00043157958984375	0.8270263671875
646	0.8251953125	304.073160232289	0.00042572021484375	0.8251953125
647	0.82275390625	304.097560232227	0.00042010498046875	0.82183837890625
648	0.8203125	304.121960232166	0.000413848876953125	0.819091796875
649	0.81787109375	304.146360232104	0.00040863037109375	0.8172607421875
650	0.8154296875	304.170760232043	0.00040283203125	0.81512451171875
651	0.81298828125	304.195160231981	0.000397369384765625	0.8123779296875
652	0.810546875	304.219560231919	0.000392242431640625	0.80963134765625
653	0.80810546875	304.243960231858	0.00038653564453125	0.8074951171875
654	0.8056640625	304.268360231796	0.00038140869140625	0.80474853515625
655	0.80322265625	304.292760231735	0.00037591552734375	0.802001953125
656	0.80078125	304.317160231673	0.00037158203125	0.79986572265625
657	0.79833984375	304.341560231611	0.0003662109375	0.7977294921875
658	0.7958984375	304.36596023155	0.0003614501953125	0.7952880859375
659	0.79345703125	304.390360231488	0.000356842041015625	0.7928466796875
660	0.791015625	304.414760231427	0.000351776123046875	0.79010009765625
661	0.78857421875	304.439160231365	0.00034722900390625	0.7879638671875
662	0.7861328125	304.463560231303	0.00034283447265625	0.78521728515625
663	0.78369140625	304.487960231242	0.000338409423828125	0.78277587890625
664	0.78125	304.51236023118	0.0003336181640625	0.7806396484375
665	0.77880859375	304.536760231119	0.00032940673828125	0.77850341796875
666	0.7763671875	304.561160231057	0.000324432373046875	0.775146484375
667	0.77392578125	304.585560230995	0.000320068359375	0.77301025390625
668	0.771484375	304.609960230934	0.000316009521484375	0.77056884765625
669	0.76904296875	304.634360230872	0.000311431884765625	0.76812744140625
670	0.7666015625	304.658760230811	0.00030743408203125	0.76568603515625
671	0.76416015625	304.683160230749	0.00030267333984375	0.76324462890625
672	0.76171875	304.707560230687	0.0002991943359375	0.7611083984375
673	0.75927734375	304.731960230626	0.000295562744140625	0.75836181640625
674	0.7568359375	304.756360230564	0.000291015625	0.7562255859375
675	0.75439453125	304.780760230503	0.00028778076171875	0.753173828125
676	0.751953125	304.805160230441	0.000283935546875	0.75103759765625
677	0.74951171875	304.829560230379	0.000280548095703125	0.749237060546875
678	0.7470703125	304.853960230318	0.0002767333984375	0.746856689453125
679	0.74462890625	304.878360230256	0.0002738037109375	0.744384765625
680	0.7421875	304.902760230195	0.0002691650390625	0.741943359375
681	0.73974609375	304.927160230133	0.000265899658203125	0.739501953125
682	0.7373046875	304.951560230071	0.000262298583984375	0.737030029296875
683	0.73486328125	304.97596023001	0.000258544921875	0.73468017578125
684	0.732421875	305.000360229948	0.000255889892578125	0.732208251953125
685	0.72998046875	305.024760229887	0.000252288818359375	0.729736328125
686	0.7275390625	305.049160229825	0.000249603271484375	0.72723388671875
687	0.72509765625	305.073560229763	0.0002454833984375	0.724884033203125
688	0.72265625	305.097960229702	0.000242950439453125	0.72247314453125
689	0.72021484375	305.12236022964	0.000239715576171875	0.720001220703125
690	0.7177734375	305.146760229578	0.000236053466796875	0.717559814453125
691	0.71533203125	305.171160229517	0.000233917236328125	0.715087890625
692	0.712890625	305.195560229455	0.000230224609375	0.712677001953125
693	0.71044921875	305.219960229394	0.00022821044921875	0.710235595703125
694	0.7080078125	305.244360229332	0.00022479248046875	0.70782470703125
695	0.70556640625	305.26876022927	0.000222198486328125	0.705352783203125
696	0.703125	305.293160229209	0.0002188720703125	0.702911376953125
697	0.70068359375	305.317560229147	0.000216400146484375	0.700469970703125
698	0.6982421875	305.341960229086	0.0002137451171875	0.69805908203125
699	0.69580078125	305.366360229024	0.0002108154296875	0.695587158203125
700	0.693359375	305.390760228962	0.0002083740234375	0.693145751953125
701	0.69091796875	305.415160228901	0.000205780029296875	0.690704345703125
702	0.6884765625	305.439560228839	0.000203643798828125	0.68829345703125
703	0.68603515625	305.463960228778	0.000200775146484375	0.685821533203125
704	0.68359375	305.488360228716	0.0001981201171875	0.68341064453125
705	0.68115234375	305.512760228654	0.0001959228515625	0.680908203125
706	0.6787109375	305.537160228593	0.000193359375	0.678497314453125
707	0.67626953125	305.561560228531	0.000191131591796875	0.67608642578125
708	0.673828125	305.58596022847	0.000187896728515625	0.673675537109375
709	0.67138671875	305.610360228408	0.000186279296875	0.671234130859375
710	0.6689453125	305.634760228346	0.000183380126953125	0.6688232421875
711	0.66650390625	305.659160228285	0.000182281494140625	0.6663818359375
712	0.6640625	305.683560228223	0.000179443359375	0.6639404296875
713	0.66162109375	305.707960228162	0.00017718505859375	0.6614990234375
714	0.6591796875	305.7323602281	0.000174560546875	0.65899658203125
715	0.65673828125	305.756760228038	0.000172576904296875	0.656585693359375
716	0.654296875	305.781160227977	0.000171112060546875	0.654083251953125
717	0.65185546875	305.805560227915	0.0001688232421875	0.65167236328125
718	0.6494140625	305.829960227854	0.0001671142578125	0.649261474609375
719	0.64697265625	305.854360227792	0.000164947509765625	0.646820068359375
720	0.64453125	305.87876022773	0.000162841796875	0.6444091796875
721	0.64208984375	305.903160227669	0.000160919189453125	0.64190673828125
722	0.6396484375	305.927560227607	0.00015838623046875	0.639495849609375
723	0.63720703125	305.951960227546	0.000156585693359375	0.6370849609375
724	0.634765625	305.976360227484	0.00015472412109375	0.634613037109375
725	0.63232421875	306.000760227422	0.0001539306640625	0.6322021484375
726	0.6298828125	306.025160227361	0.00015118408203125	0.62982177734375
727	0.62744140625	306.049560227299	0.000149383544921875	0.627288818359375
728	0.625	306.073960227238	0.000148040771484375	0.62481689453125
729	0.62255859375	306.098360227176	0.00014617919921875	0.6224365234375
730	0.6201171875	306.122760227114	0.000144683837890625	0.6199951171875
731	0.61767578125	306.147160227053	0.00014239501953125	0.6175537109375
732	0.615234375	306.171560226991	0.0001412353515625	0.615081787109375
733	0.61279296875	306.19596022693	0.000139190673828125	0.61273193359375
734	0.6103515625	306.220360226868	0.000136688232421875	0.610260009765625
735	0.60791015625	306.244760226806	0.0001356201171875	0.6077880859375
736	0.60546875	306.269160226745	0.000134063720703125	0.60528564453125
737	0.60302734375	306.293560226683	0.000133636474609375	0.602935791015625
738	0.6005859375	306.317960226621	0.0001314697265625	0.6004638671875
739	0.59814453125	306.34236022656	0.00013031005859375	0.598052978515625
740	0.595703125	306.366760226498	0.000128509521484375	0.5955810546875
741	0.59326171875	306.391160226437	0.000127471923828125	0.5931396484375
742	0.5908203125	306.415560226375	0.0001260986328125	0.5906982421875
743	0.58837890625	306.439960226313	0.000124755859375	0.58831787109375
744	0.5859375	306.464360226252	0.0001234130859375	0.585845947265625
745	0.58349609375	306.48876022619	0.00012139892578125	0.583404541015625
746	0.5810546875	306.513160226129	0.000120391845703125	0.580902099609375
747	0.57861328125	306.537560226067	0.000118988037109375	0.5784912109375
748	0.576171875	306.561960226005	0.000118194580078125	0.57611083984375
749	0.57373046875	306.586360225944	0.000116424560546875	0.57366943359375
750	0.5712890625	306.610760225882	0.000115142822265625	0.571197509765625
751	0.56884765625	306.635160225821	0.00011376953125	0.5687255859375
752	0.56640625	306.659560225759	0.00011212158203125	0.5662841796875
753	0.56396484375	306.683960225697	0.000111663818359375	0.5638427734375
754	0.5615234375	306.708360225636	0.000109466552734375	0.56134033203125
755	0.55908203125	306.732760225574	0.0001087646484375	0.558990478515625
756	0.556640625	306.757160225513	0.000107421875	0.556549072265625
757	0.55419921875	306.781560225451	0.0001064453125	0.5540771484375
758	0.5517578125	306.805960225389	0.00010546875	0.55169677734375
759	0.54931640625	306.830360225328	0.000103668212890625	0.54925537109375
760	0.546875	306.854760225266	0.000102996826171875	0.54681396484375
761	0.54443359375	306.879160225205	0.000101318359375	0.54437255859375
762	0.5419921875	306.903560225143	0.000100921630859375	0.541900634765625
763	0.53955078125	306.927960225081	9.9334716796875E-05	0.539398193359375
764	0.537109375	306.95236022502	9.820556640625E-05	0.5369873046875
765	0.53466796875	306.976760224958	9.7442626953125E-05	0.534576416015625
766	0.5322265625	307.001160224897	9.5916748046875E-05	0.53216552734375
767	0.52978515625	307.025560224835	9.4940185546875E-05	0.52978515625
768	0.52734375	307.049960224773	9.3292236328125E-05	0.527069091796875
769	0.52490234375	307.074360224712	9.3231201171875E-05	0.524658203125
770	0.5224609375	307.09876022465	9.1094970703125E-05	0.522247314453125
771	0.52001953125	307.123160224589	9.1217041015625E-05	0.519805908203125
772	0.517578125	307.147560224527	8.9569091796875E-05	0.517333984375
773	0.51513671875	307.171960224465	8.905029296875E-05	0.514984130859375
774	0.5126953125	307.196360224404	8.8134765625E-05	0.51251220703125
775	0.51025390625	307.220760224342	8.685302734375E-05	0.51007080078125
776	0.5078125	307.245160224281	8.685302734375E-05	0.50762939453125
777	0.50537109375	307.269560224219	8.514404296875E-05	0.50518798828125
778	0.5029296875	307.293960224157	8.4564208984375E-05	0.502777099609375
779	0.50048828125	307.318360224096	8.30078125E-05	0.500274658203125
780	0.498046875	307.342760224034	8.2611083984375E-05	0.49786376953125
781	0.49560546875	307.367160223973	8.160400390625E-05	0.49542236328125
782	0.4931640625	307.391560223911	8.02001953125E-05	0.49298095703125
783	0.49072265625	307.415960223849	7.99560546875E-05	0.49053955078125
784	0.48828125	307.440360223788	7.8826904296875E-05	0.488128662109375
785	0.48583984375	307.464760223726	7.8369140625E-05	0.485687255859375
786	0.4833984375	307.489160223664	7.7545166015625E-05	0.483184814453125
787	0.48095703125	307.513560223603	7.696533203125E-05	0.4808349609375
788	0.478515625	307.537960223541	7.5958251953125E-05	0.478302001953125
789	0.47607421875	307.56236022348	7.5164794921875E-05	0.4759521484375
790	0.4736328125	307.586760223418	7.476806640625E-05	0.47344970703125
791	0.47119140625	307.611160223356	7.318115234375E-05	0.471099853515625
792	0.46875	307.635560223295	7.2998046875E-05	0.4686279296875
793	0.46630859375	307.659960223233	7.2113037109375E-05	0.46612548828125
794	0.4638671875	307.684360223172	7.1746826171875E-05	0.463714599609375
795	0.46142578125	307.70876022311	7.073974609375E-05	0.4613037109375
796	0.458984375	307.733160223048	6.982421875E-05	0.458831787109375
797	0.45654296875	307.757560222987	6.9488525390625E-05	0.456390380859375
798	0.4541015625	307.781960222925	6.8328857421875E-05	0.45391845703125
799	0.45166015625	307.806360222864	6.79931640625E-05	0.451446533203125
800	0.44921875	307.830760222802	6.6680908203125E-05	0.449127197265625
801	0.44677734375	307.85516022274	6.6680908203125E-05	0.44659423828125
802	0.4443359375	307.879560222679	6.5826416015625E-05	0.4442138671875
803	0.44189453125	307.903960222617	6.4788818359375E-05	0.441802978515625
804	0.439453125	307.928360222556	6.4239501953125E-05	0.43927001953125
805	0.43701171875	307.952760222494	6.3262939453125E-05	0.436920166015625
806	0.4345703125	307.977160222432	6.31103515625E-05	0.434478759765625
807	0.43212890625	308.001560222371	6.195068359375E-05	0.4320068359375
808	0.4296875	308.025960222309	6.21337890625E-05	0.429595947265625
809	0.42724609375	308.050360222248	6.0943603515625E-05	0.4271240234375
810	0.4248046875	308.074760222186	6.0546875E-05	0.424652099609375
811	0.42236328125	308.099160222124	5.9967041015625E-05	0.422210693359375
812	0.419921875	308.123560222063	5.9051513671875E-05	0.4197998046875
813	0.41748046875	308.147960222001	5.902099609375E-05	0.417388916015625
814	0.4150390625	308.17236022194	5.8074951171875E-05	0.4149169921875
815	0.41259765625	308.196760221878	5.7708740234375E-05	0.41253662109375
816	0.41015625	308.221160221816	5.65185546875E-05	0.4100341796875
817	0.40771484375	308.245560221755	5.6396484375E-05	0.4075927734375
818	0.4052734375	308.269960221693	5.5908203125E-05	0.4051513671875
819	0.40283203125	308.294360221632	5.4962158203125E-05	0.402679443359375
820	0.400390625	308.31876022157	5.4412841796875E-05	0.4002685546875
821	0.39794921875	308.343160221508	5.3558349609375E-05	0.397796630859375
822	0.3955078125	308.367560221447	5.3558349609375E-05	0.39532470703125
823	0.39306640625	308.391960221385	5.2459716796875E-05	0.3929443359375
824	0.390625	308.416360221324	5.224609375E-05	0.3905029296875
825	0.38818359375	308.440760221262	5.1483154296875E-05	0.388092041015625
826	0.3857421875	308.4651602212	5.084228515625E-05	0.385589599609375
827	0.38330078125	308.489560221139	5.09033203125E-05	0.383209228515625
828	0.380859375	308.513960221077	4.9407958984375E-05	0.380828857421875
829	0.37841796875	308.538360221016	4.925537109375E-05	0.378326416015625
830	0.3759765625	308.562760220954	4.80560302734375E-05	0.3758544921875
831	0.37353515625	308.587160220892	4.8004150390625E-05	0.373504638671875
832	0.37109375	308.611560220831	4.688720703125E-05	0.3709716796875
833	0.36865234375	308.635960220769	4.66522216796875E-05	0.3685302734375
834	0.3662109375	308.660360220708	4.6319580078125E-05	0.3660888671875
835	0.36376953125	308.684760220646	4.48944091796875E-05	0.363677978515625
836	0.361328125	308.709160220584	4.50408935546875E-05	0.3612060546875
837	0.35888671875	308.733560220523	4.4415283203125E-05	0.3587646484375
838	0.3564453125	308.757960220461	4.43511962890625E-05	0.356353759765625
839	0.35400390625	308.782360220399	4.32159423828125E-05	0.353912353515625
840	0.3515625	308.806760220338	4.31365966796875E-05	0.351470947265625
841	0.34912109375	308.831160220276	4.24041748046875E-05	0.349090576171875
842	0.3466796875	308.855560220215	4.18060302734375E-05	0.34661865234375
843	0.34423828125	308.879960220153	4.1802978515625E-05	0.3441162109375
844	0.341796875	308.904360220091	4.0521240234375E-05	0.34173583984375
845	0.33935546875	308.92876022003	4.08447265625E-05	0.33929443359375
846	0.3369140625	308.953160219968	3.96453857421875E-05	0.3367919921875
847	0.33447265625	308.977560219907	3.9208984375E-05	0.334381103515625
848	0.33203125	309.001960219845	3.853759765625E-05	0.331939697265625
849	0.32958984375	309.026360219783	3.812255859375E-05	0.329498291015625
850	0.3271484375	309.050760219722	3.80706787109375E-05	0.327056884765625
851	0.32470703125	309.07516021966	3.70025634765625E-05	0.3245849609375
852	0.322265625	309.099560219599	3.71002197265625E-05	0.322174072265625
853	0.31982421875	309.123960219537	3.56597900390625E-05	0.31976318359375
854	0.3173828125	309.148360219475	3.582763671875E-05	0.31732177734375
855	0.31494140625	309.172760219414	3.49273681640625E-05	0.31488037109375
856	0.3125	309.197160219352	3.46893310546875E-05	0.312408447265625
857	0.31005859375	309.221560219291	3.42254638671875E-05	0.3099365234375
858	0.3076171875	309.245960219229	3.3251953125E-05	0.307586669921875
859	0.30517578125	309.270360219167	3.35357666015625E-05	0.30511474609375
860	0.302734375	309.294760219106	3.19000244140625E-05	0.302642822265625
861	0.30029296875	309.319160219044	3.20556640625E-05	0.3001708984375
862	0.2978515625	309.343560218983	3.12286376953125E-05	0.29779052734375
863	0.29541015625	309.367960218921	3.0975341796875E-05	0.295379638671875
864	0.29296875	309.392360218859	3.06060791015625E-05	0.292938232421875
865	0.29052734375	309.416760218798	2.969970703125E-05	0.290496826171875
866	0.2880859375	309.441160218736	2.96173095703125E-05	0.28802490234375
867	0.28564453125	309.465560218675	2.87078857421875E-05	0.28558349609375
868	0.283203125	309.489960218613	2.88360595703125E-05	0.283111572265625
869	0.28076171875	309.514360218551	2.76092529296875E-05	0.28070068359375
870	0.2783203125	309.53876021849	2.75482177734375E-05	0.27825927734375
871	0.27587890625	309.563160218428	2.69317626953125E-05	0.275787353515625
872	0.2734375	309.587560218367	2.65045166015625E-05	0.2734375
873	0.27099609375	309.611960218305	2.625732421875E-05	0.27093505859375
874	0.2685546875	309.636360218243	2.5030517578125E-05	0.26849365234375
875	0.26611328125	309.660760218182	2.4993896484375E-05	0.26605224609375
876	0.263671875	309.68516021812	2.41485595703125E-05	0.263641357421875
877	0.26123046875	309.709560218059	2.386474609375E-05	0.26123046875
878	0.2587890625	309.733960217997	2.27203369140625E-05	0.258758544921875
879	0.25634765625	309.758360217935	2.24090576171875E-05	0.256317138671875
880	0.25390625	309.782760217874	2.1978759765625E-05	0.253814697265625
881	0.25146484375	309.807160217812	2.12677001953125E-05	0.25140380859375
882	0.2490234375	309.831560217751	2.144775390625E-05	0.249053955078125
883	0.24658203125	309.855960217689	2.05291748046875E-05	0.24658203125
884	0.244140625	309.880360217627	2.05169677734375E-05	0.244110107421875
885	0.24169921875	309.904760217566	1.95068359375E-05	0.241668701171875
886	0.2392578125	309.929160217504	1.91375732421875E-05	0.239288330078125
887	0.23681640625	309.953560217442	1.8853759765625E-05	0.23675537109375
888	0.234375	309.977960217381	1.80755615234375E-05	0.234344482421875
889	0.23193359375	310.002360217319	1.77825927734375E-05	0.231964111328125
890	0.2294921875	310.026760217258	1.68243408203125E-05	0.2294921875
891	0.22705078125	310.051160217196	1.69219970703125E-05	0.22705078125
892	0.224609375	310.075560217134	1.59942626953125E-05	0.224609375
893	0.22216796875	310.099960217073	1.58111572265625E-05	0.222198486328125
894	0.2197265625	310.124360217011	1.51885986328125E-05	0.219757080078125
895	0.21728515625	310.14876021695	1.47003173828125E-05	0.21728515625
896	0.21484375	310.173160216888	1.45172119140625E-05	0.214813232421875
897	0.21240234375	310.197560216826	1.3531494140625E-05	0.21240234375
898	0.2099609375	310.221960216765	1.35772705078125E-05	0.209930419921875
899	0.20751953125	310.246360216703	1.28387451171875E-05	0.20758056640625
900	0.205078125	310.270760216642	1.259765625E-05	0.205047607421875
901	0.20263671875	310.29516021658	1.18377685546875E-05	0.202728271484375
902	0.2001953125	310.319560216518	1.12762451171875E-05	0.2001953125
903	0.19775390625	310.343960216457	1.1077880859375E-05	0.197723388671875
904	0.1953125	310.368360216395	9.991455078125E-06	0.1953125
905	0.19287109375	310.392760216334	1.016845703125E-05	0.19287109375
906	0.1904296875	310.417160216272	9.04541015625E-06	0.190460205078125
907	0.18798828125	310.44156021621	9.2803955078125E-06	0.18798828125
908	0.185546875	310.465960216149	8.3648681640625E-06	0.185546875
909	0.18310546875	310.490360216087	7.8338623046875E-06	0.183135986328125
910	0.1806640625	310.514760216026	7.60498046875E-06	0.1806640625
911	0.17822265625	310.539160215964	6.8634033203125E-06	0.178131103515625
912	0.17578125	310.563560215902	6.854248046875E-06	0.1756591796875
913	0.17333984375	310.587960215841	5.731201171875E-06	0.173187255859375
914	0.1708984375	310.612360215779	5.9539794921875E-06	0.170806884765625
915	0.16845703125	310.636760215718	5.0994873046875E-06	0.168426513671875
916	0.166015625	310.661160215656	4.736328125E-06	0.16595458984375
917	0.16357421875	310.685560215594	4.2437744140625E-06	0.163543701171875
918	0.1611328125	310.709960215533	3.394775390625E-06	0.161102294921875
919	0.15869140625	310.734360215471	3.49212646484375E-06	0.158721923828125
920	0.15625	310.75876021541	2.31842041015625E-06	0.156158447265625
921	0.15380859375	310.783160215348	2.56439208984375E-06	0.15380859375
922	0.1513671875	310.807560215286	1.79473876953125E-06	0.151458740234375
923	0.14892578125	310.831960215225	1.71295166015625E-06	0.14898681640625
924	0.146484375	310.856360215163	1.03515625E-06	0.146514892578125
925	0.14404296875	310.880760215102	3.875732421875E-07	0.144073486328125
926	0.1416015625	310.90516021504	1.7181396484375E-07	0.1416015625
927	0.13916015625	310.929560214978	-7.635498046875E-07	0.13922119140625
928	0.13671875	310.953960214917	-5.450439453125E-07	0.13677978515625
929	0.13427734375	310.978360214855	-1.67877197265625E-06	0.1343994140625
930	0.1318359375	311.002760214794	-1.6876220703125E-06	0.13189697265625
931	0.12939453125	311.027160214732	-2.4755859375E-06	0.12945556640625
932	0.126953125	311.05156021467	-2.987060546875E-06	0.1270751953125
933	0.12451171875	311.075960214609	-3.231201171875E-06	0.124603271484375
934	0.1220703125	311.100360214547	-4.0771484375E-06	0.1221923828125
935	0.11962890625	311.124760214485	-3.9422607421875E-06	0.1197509765625
936	0.1171875	311.149160214424	-5.0628662109375E-06	0.11724853515625
937	0.11474609375	311.173560214362	-4.9285888671875E-06	0.114837646484375
938	0.1123046875	311.197960214301	-5.8013916015625E-06	0.1124267578125
939	0.10986328125	311.222360214239	-6.195068359375E-06	0.1099853515625
940	0.107421875	311.246760214177	-6.622314453125E-06	0.107574462890625
941	0.10498046875	311.271160214116	-7.2784423828125E-06	0.105072021484375
942	0.1025390625	311.295560214054	-7.16552734375E-06	0.1026611328125
943	0.10009765625	311.319960213993	-8.3099365234375E-06	0.100250244140625
944	0.09765625	311.344360213931	-8.16650390625E-06	0.09783935546875
945	0.09521484375	311.368760213869	-9.04541015625E-06	0.095367431640625
946	0.0927734375	311.393160213808	-9.173583984375E-06	0.092926025390625
947	0.09033203125	311.417560213746	-9.7259521484375E-06	0.09051513671875
948	0.087890625	311.441960213685	-1.03729248046875E-05	0.0880126953125
949	0.08544921875	311.466360213623	-1.04736328125E-05	0.085601806640625
950	0.0830078125	311.490760213561	-1.15478515625E-05	0.08319091796875
951	0.08056640625	311.5151602135	-1.1328125E-05	0.08074951171875
952	0.078125	311.539560213438	-1.23565673828125E-05	0.078338623046875
953	0.07568359375	311.563960213377	-1.2451171875E-05	0.075927734375
954	0.0732421875	311.588360213315	-1.30035400390625E-05	0.07342529296875
955	0.07080078125	311.612760213253	-1.35223388671875E-05	0.071044921875
956	0.068359375	311.637160213192	-1.370849609375E-05	0.068572998046875
957	0.06591796875	311.66156021313	-1.4617919921875E-05	0.066131591796875
958	0.0634765625	311.685960213069	-1.4434814453125E-05	0.063690185546875
959	0.06103515625	311.710360213007	-1.5472412109375E-05	0.061279296875
960	0.05859375	311.734760212945	-1.5362548828125E-05	0.058837890625
961	0.05615234375	311.759160212884	-1.6217041015625E-05	0.056427001953125
962	0.0537109375	311.783560212822	-1.66412353515625E-05	0.053985595703125
963	0.05126953125	311.807960212761	-1.69158935546875E-05	0.051513671875
964	0.048828125	311.832360212699	-1.76239013671875E-05	0.0490020751953125
965	0.04638671875	311.856760212637	-1.744384765625E-05	0.0465606689453125
966	0.0439453125	311.881160212576	-1.85699462890625E-05	0.0441192626953125
967	0.04150390625	311.905560212514	-1.84600830078125E-05	0.0416717529296875
968	0.0390625	311.929960212453	-1.9305419921875E-05	0.0392303466796875
969	0.03662109375	311.954360212391	-1.95281982421875E-05	0.036785888671875
970	0.0341796875	311.978760212329	-2.003173828125E-05	0.0343658447265625
971	0.03173828125	312.003160212268	-2.07275390625E-05	0.031903076171875
972	0.029296875	312.027560212206	-2.07427978515625E-05	0.0294708251953125
973	0.02685546875	312.051960212145	-2.17315673828125E-05	0.027044677734375
974	0.0244140625	312.076360212083	-2.15606689453125E-05	0.024591064453125
975	0.02197265625	312.100760212021	-2.2601318359375E-05	0.0221221923828125
976	0.01953125	312.12516021196	-2.27264404296875E-05	0.01971435546875
977	0.01708984375	312.149560211898	-2.3309326171875E-05	0.0172515869140625
978	0.0146484375	312.173960211837	-2.38037109375E-05	0.0148406982421875
979	0.01220703125	312.198360211775	-2.39105224609375E-05	0.012384033203125
980	0.009765625	312.222760211713	-2.49176025390625E-05	0.00993957519531249
981	0.00732421875	312.247160211652	-2.47772216796875E-05	0.00749816894531249
982	0.0048828125	312.27156021159	-2.5811767578125E-05	0.00505981445312501
983	0.00244140625	312.295960211528	-2.57568359375E-05	0.00263671875
984	0	312.320360211467	-2.65167236328125E-05	0.0001983642578125
985	0.00244140625	312.344760211405	-2.60406494140625E-05	0.0026214599609375
986	0.0048828125	312.369160211344	-2.535400390625E-05	0.00506591796875
987	0.00732421875	312.393560211282	-2.52227783203125E-05	0.00751342773437499
988	0.009765625	312.41796021122	-2.4188232421875E-05	0.00994873046875
989	0.01220703125	312.442360211159	-2.44415283203125E-05	0.0123809814453125
990	0.0146484375	312.466760211097	-2.34527587890625E-05	0.014837646484375
991	0.01708984375	312.491160211036	-2.340087890625E-05	0.0172607421875
992	0.01953125	312.515560210974	-2.27935791015625E-05	0.0197235107421875
993	0.02197265625	312.539960210912	-2.23052978515625E-05	0.022174072265625
