Index	Potential applied (V)	Time (s)	WE(1).Current (A)	WE(1).Potential (V)
1	0.00244140625	6.78594298286714	-2.73406982421875E-05	0.00261840820312501
2	0.0048828125	6.81034298280554	-2.6812744140625E-05	0.0050384521484375
3	0.00732421875	6.83474298274393	-2.62969970703125E-05	0.0074920654296875
4	0.009765625	6.85914298268233	-2.53326416015625E-05	0.00991210937500001
5	0.01220703125	6.88354298262072	-2.52532958984375E-05	0.0123626708984375
6	0.0146484375	6.90794298255912	-2.39715576171875E-05	0.01480712890625
7	0.01708984375	6.93234298249752	-2.38861083984375E-05	0.0172515869140625
8	0.01953125	6.95674298243591	-2.2747802734375E-05	0.0197021484375
9	0.02197265625	6.98114298237431	-2.23785400390625E-05	0.0221435546875
10	0.0244140625	7.0055429823127	-2.18048095703125E-05	0.024566650390625
11	0.02685546875	7.0299429822511	-2.095947265625E-05	0.0270172119140625
12	0.029296875	7.0543429821895	-2.07550048828125E-05	0.029449462890625
13	0.03173828125	7.07874298212789	-1.95037841796875E-05	0.0319061279296875
14	0.0341796875	7.10314298206629	-1.95404052734375E-05	0.0343231201171875
15	0.03662109375	7.12754298200468	-1.83624267578125E-05	0.036767578125
16	0.0390625	7.15194298194308	-1.8072509765625E-05	0.0392120361328125
17	0.04150390625	7.17634298188148	-1.737060546875E-05	0.041668701171875
18	0.0439453125	7.20074298181987	-1.66259765625E-05	0.0441192626953125
19	0.04638671875	7.22514298175827	-1.64031982421875E-05	0.0465484619140625
20	0.048828125	7.24954298169666	-1.524658203125E-05	0.048980712890625
21	0.05126953125	7.27394298163506	-1.5234375E-05	0.0513916015625
22	0.0537109375	7.29834298157346	-1.38397216796875E-05	0.05377197265625
23	0.05615234375	7.32274298151185	-1.37451171875E-05	0.05621337890625
24	0.05859375	7.34714298145025	-1.28326416015625E-05	0.05865478515625
25	0.06103515625	7.37154298138864	-1.221923828125E-05	0.061126708984375
26	0.0634765625	7.39594298132704	-1.18408203125E-05	0.0635986328125
27	0.06591796875	7.42034298126543	-1.07269287109375E-05	0.0660400390625
28	0.068359375	7.44474298120383	-1.0809326171875E-05	0.068511962890625
29	0.07080078125	7.46914298114223	-9.429931640625E-06	0.07086181640625
30	0.0732421875	7.49354298108062	-9.2437744140625E-06	0.073333740234375
31	0.07568359375	7.51794298101902	-8.26416015625E-06	0.075775146484375
32	0.078125	7.54234298095741	-7.733154296875E-06	0.078277587890625
33	0.08056640625	7.56674298089581	-7.275390625E-06	0.080596923828125
34	0.0830078125	7.59114298083421	-6.3140869140625E-06	0.083160400390625
35	0.08544921875	7.6155429807726	-6.1767578125E-06	0.085540771484375
36	0.087890625	7.639942980711	-4.742431640625E-06	0.08795166015625
37	0.09033203125	7.66434298064939	-4.57763671875E-06	0.090301513671875
38	0.0927734375	7.68874298058779	-3.72100830078125E-06	0.09283447265625
39	0.09521484375	7.71314298052619	-3.21807861328125E-06	0.09527587890625
40	0.09765625	7.73754298046458	-2.4749755859375E-06	0.0977783203125
41	0.10009765625	7.76194298040298	-1.58172607421875E-06	0.100189208984375
42	0.1025390625	7.78634298034137	-1.36322021484375E-06	0.102630615234375
43	0.10498046875	7.81074298027977	-3.204345703125E-08	0.105072021484375
44	0.107421875	7.83514298021817	1.397705078125E-07	0.107421875
45	0.10986328125	7.85954298015656	1.42547607421875E-06	0.109893798828125
46	0.1123046875	7.88394298009496	1.6619873046875E-06	0.112335205078125
47	0.11474609375	7.90834298003335	2.45758056640625E-06	0.114715576171875
48	0.1171875	7.93274297997175	3.3123779296875E-06	0.1171875
49	0.11962890625	7.95714297991015	3.75946044921875E-06	0.119598388671875
50	0.1220703125	7.98154297984854	4.98046875E-06	0.1220703125
51	0.12451171875	8.00594297978694	5.13916015625E-06	0.124481201171875
52	0.126953125	8.03034297972533	6.4544677734375E-06	0.1268310546875
53	0.12939453125	8.05474297966373	6.7230224609375E-06	0.129364013671875
54	0.1318359375	8.07914297960212	7.5439453125E-06	0.131744384765625
55	0.13427734375	8.10354297954052	8.294677734375E-06	0.13421630859375
56	0.13671875	8.12794297947892	8.75244140625E-06	0.1365966796875
57	0.13916015625	8.15234297941731	9.87548828125E-06	0.139068603515625
58	0.1416015625	8.17674297935571	1.01715087890625E-05	0.1414794921875
59	0.14404296875	8.2011429792941	1.1517333984375E-05	0.143890380859375
60	0.146484375	8.2255429792325	1.1688232421875E-05	0.1463623046875
61	0.14892578125	8.2499429791709	1.2548828125E-05	0.148773193359375
62	0.1513671875	8.27434297910929	1.30645751953125E-05	0.151092529296875
63	0.15380859375	8.29874297904769	1.37298583984375E-05	0.153594970703125
64	0.15625	8.32314297898608	1.49871826171875E-05	0.15606689453125
65	0.15869140625	8.34754297892448	1.52313232421875E-05	0.15850830078125
66	0.1611328125	8.37194297886288	1.63848876953125E-05	0.16094970703125
67	0.16357421875	8.39634297880127	1.65740966796875E-05	0.163330078125
68	0.166015625	8.42074297873967	1.77490234375E-05	0.165771484375
69	0.16845703125	8.44514297867806	1.8389892578125E-05	0.168212890625
70	0.1708984375	8.46954297861646	1.88629150390625E-05	0.17059326171875
71	0.17333984375	8.49394297855486	1.99676513671875E-05	0.173065185546875
72	0.17578125	8.51834297849325	2.025146484375E-05	0.17547607421875
73	0.17822265625	8.54274297843165	2.17803955078125E-05	0.17791748046875
74	0.1806640625	8.56714297837004	2.1875E-05	0.180267333984375
75	0.18310546875	8.59154297830844	2.3150634765625E-05	0.1827392578125
76	0.185546875	8.61594297824684	2.388916015625E-05	0.18511962890625
77	0.18798828125	8.64034297818523	2.4591064453125E-05	0.18756103515625
78	0.1904296875	8.66474297812363	2.518310546875E-05	0.19000244140625
79	0.19287109375	8.68914297806202	2.56011962890625E-05	0.19244384765625
80	0.1953125	8.71354297800042	2.70233154296875E-05	0.194854736328125
81	0.19775390625	8.73794297793881	2.71636962890625E-05	0.197235107421875
82	0.2001953125	8.76234297787721	2.8802490234375E-05	0.199676513671875
83	0.20263671875	8.78674297781561	2.89459228515625E-05	0.20208740234375
84	0.205078125	8.811142977754	2.977294921875E-05	0.204559326171875
85	0.20751953125	8.8355429776924	3.065185546875E-05	0.206878662109375
86	0.2099609375	8.85994297763079	3.08502197265625E-05	0.209869384765625
87	0.21240234375	8.88434297756919	3.20404052734375E-05	0.212371826171875
88	0.21484375	8.90874297750759	3.21929931640625E-05	0.214752197265625
89	0.21728515625	8.93314297744598	3.3990478515625E-05	0.21722412109375
90	0.2197265625	8.95754297738438	3.41217041015625E-05	0.219696044921875
91	0.22216796875	8.98194297732277	3.55377197265625E-05	0.222137451171875
92	0.224609375	9.00634297726117	3.59039306640625E-05	0.224578857421875
93	0.22705078125	9.03074297719957	3.63922119140625E-05	0.226959228515625
94	0.2294921875	9.05514297713796	3.81011962890625E-05	0.229461669921875
95	0.23193359375	9.07954297707636	3.8018798828125E-05	0.23187255859375
96	0.234375	9.10394297701475	3.90655517578125E-05	0.234283447265625
97	0.23681640625	9.12834297695315	3.9324951171875E-05	0.236663818359375
98	0.2392578125	9.15274297689155	4.05029296875E-05	0.2391357421875
99	0.24169921875	9.17714297682994	4.10614013671875E-05	0.24163818359375
100	0.244140625	9.20154297676834	4.17633056640625E-05	0.2440185546875
101	0.24658203125	9.22594297670673	4.3170166015625E-05	0.246490478515625
102	0.2490234375	9.25034297664513	4.2657470703125E-05	0.248992919921875
103	0.25146484375	9.27474297658352	4.44000244140625E-05	0.25140380859375
104	0.25390625	9.29914297652192	4.47479248046875E-05	0.2537841796875
105	0.25634765625	9.32354297646032	4.6014404296875E-05	0.256256103515625
106	0.2587890625	9.34794297639871	4.62432861328125E-05	0.25872802734375
107	0.26123046875	9.37234297633711	4.67987060546875E-05	0.261138916015625
108	0.263671875	9.3967429762755	4.771728515625E-05	0.263580322265625
109	0.26611328125	9.4211429762139	4.814453125E-05	0.266021728515625
110	0.2685546875	9.4455429761523	4.9652099609375E-05	0.2684326171875
111	0.27099609375	9.46994297609069	4.9560546875E-05	0.2708740234375
112	0.2734375	9.49434297602909	5.084228515625E-05	0.2733154296875
113	0.27587890625	9.51874297596748	5.1544189453125E-05	0.2757568359375
114	0.2783203125	9.54314297590588	5.242919921875E-05	0.2781982421875
115	0.28076171875	9.56754297584428	5.31005859375E-05	0.280670166015625
116	0.283203125	9.59194297578267	5.3558349609375E-05	0.2830810546875
117	0.28564453125	9.61634297572107	5.50537109375E-05	0.285491943359375
118	0.2880859375	9.64074297565946	5.52978515625E-05	0.287994384765625
119	0.29052734375	9.66514297559786	5.7220458984375E-05	0.290435791015625
120	0.29296875	9.68954297553626	5.6884765625E-05	0.2928466796875
121	0.29541015625	9.71394297547465	5.8319091796875E-05	0.295318603515625
122	0.2978515625	9.73834297541305	5.889892578125E-05	0.29766845703125
123	0.30029296875	9.76274297535144	5.9417724609375E-05	0.3001708984375
124	0.302734375	9.78714297528984	6.0638427734375E-05	0.302642822265625
125	0.30517578125	9.81154297522824	6.0791015625E-05	0.30499267578125
126	0.3076171875	9.83594297516663	6.2713623046875E-05	0.3074951171875
127	0.31005859375	9.86034297510503	6.2469482421875E-05	0.3099365234375
128	0.3125	9.88474297504342	6.3873291015625E-05	0.31243896484375
129	0.31494140625	9.90914297498182	6.48193359375E-05	0.3148193359375
130	0.3173828125	9.93354297492021	6.53076171875E-05	0.3172607421875
131	0.31982421875	9.95794297485861	6.65283203125E-05	0.3197021484375
132	0.322265625	9.98234297479701	6.6619873046875E-05	0.322052001953125
133	0.32470703125	10.0067429747354	6.8511962890625E-05	0.324615478515625
134	0.3271484375	10.0311429746738	6.9000244140625E-05	0.327056884765625
135	0.32958984375	10.0555429746122	7.0220947265625E-05	0.32940673828125
136	0.33203125	10.0799429745506	7.098388671875E-05	0.331878662109375
137	0.33447265625	10.104342974489	7.1807861328125E-05	0.334259033203125
138	0.3369140625	10.1287429744274	7.2509765625E-05	0.336761474609375
139	0.33935546875	10.1531429743658	7.269287109375E-05	0.339202880859375
140	0.341796875	10.1775429743042	7.421875E-05	0.3416748046875
141	0.34423828125	10.2019429742426	7.4432373046875E-05	0.344085693359375
142	0.3466796875	10.226342974181	7.55615234375E-05	0.346527099609375
143	0.34912109375	10.2507429741194	7.6202392578125E-05	0.348968505859375
144	0.3515625	10.2751429740578	7.71484375E-05	0.3514404296875
145	0.35400390625	10.2995429739962	7.8338623046875E-05	0.3538818359375
146	0.3564453125	10.3239429739345	7.8521728515625E-05	0.356292724609375
147	0.35888671875	10.3483429738729	8.0322265625E-05	0.3587646484375
148	0.361328125	10.3727429738113	8.0108642578125E-05	0.361175537109375
149	0.36376953125	10.3971429737497	8.154296875E-05	0.363616943359375
150	0.3662109375	10.4215429736881	8.2244873046875E-05	0.3660888671875
151	0.36865234375	10.4459429736265	8.3251953125E-05	0.368560791015625
152	0.37109375	10.4703429735649	8.38623046875E-05	0.3709716796875
153	0.37353515625	10.4947429735033	8.45947265625E-05	0.3734130859375
154	0.3759765625	10.5191429734417	8.6151123046875E-05	0.375823974609375
155	0.37841796875	10.5435429733801	8.63037109375E-05	0.378265380859375
156	0.380859375	10.5679429733185	8.7860107421875E-05	0.3807373046875
157	0.38330078125	10.5923429732569	8.843994140625E-05	0.38311767578125
158	0.3857421875	10.6167429731953	8.92333984375E-05	0.38555908203125
159	0.38818359375	10.6411429731337	9.027099609375E-05	0.3880615234375
160	0.390625	10.6655429730721	9.1827392578125E-05	0.390472412109375
161	0.39306640625	10.6899429730105	9.26513671875E-05	0.392852783203125
162	0.3955078125	10.7143429729489	9.3048095703125E-05	0.395355224609375
163	0.39794921875	10.7387429728873	9.4085693359375E-05	0.397796630859375
164	0.400390625	10.7631429728257	9.4482421875E-05	0.40020751953125
165	0.40283203125	10.7875429727641	9.6160888671875E-05	0.402679443359375
166	0.4052734375	10.8119429727025	9.66796875E-05	0.40509033203125
167	0.40771484375	10.8363429726409	9.7686767578125E-05	0.40753173828125
168	0.41015625	10.8607429725793	9.857177734375E-05	0.40997314453125
169	0.41259765625	10.8851429725177	9.930419921875E-05	0.412384033203125
170	0.4150390625	10.9095429724561	0.00010089111328125	0.4149169921875
171	0.41748046875	10.9339429723944	0.000100738525390625	0.417327880859375
172	0.419921875	10.9583429723328	0.000102203369140625	0.419769287109375
173	0.42236328125	10.9827429722712	0.000102783203125	0.42218017578125
174	0.4248046875	11.0071429722096	0.00010455322265625	0.424560546875
175	0.42724609375	11.031542972148	0.000105682373046875	0.427093505859375
176	0.4296875	11.0559429720864	0.000105712890625	0.429534912109375
177	0.43212890625	11.0803429720248	0.000106842041015625	0.431915283203125
178	0.4345703125	11.1047429719632	0.00010748291015625	0.43438720703125
179	0.43701171875	11.1291429719016	0.00010943603515625	0.436798095703125
180	0.439453125	11.15354297184	0.0001103515625	0.43927001953125
181	0.44189453125	11.1779429717784	0.000111541748046875	0.441741943359375
182	0.4443359375	11.2023429717168	0.00011212158203125	0.44415283203125
183	0.44677734375	11.2267429716552	0.00011328125	0.44659423828125
184	0.44921875	11.2511429715936	0.0001143798828125	0.449005126953125
185	0.45166015625	11.275542971532	0.0001148681640625	0.451416015625
186	0.4541015625	11.2999429714704	0.000116455078125	0.453857421875
187	0.45654296875	11.3243429714088	0.000117767333984375	0.456329345703125
188	0.458984375	11.3487429713472	0.00011871337890625	0.45880126953125
189	0.46142578125	11.3731429712856	0.0001202392578125	0.461181640625
190	0.4638671875	11.397542971224	0.000121551513671875	0.46356201171875
191	0.46630859375	11.4219429711624	0.000122344970703125	0.466064453125
192	0.46875	11.4463429711008	0.000123138427734375	0.468475341796875
193	0.47119140625	11.4707429710392	0.00012457275390625	0.470916748046875
194	0.4736328125	11.4951429709776	0.00012506103515625	0.473388671875
195	0.47607421875	11.5195429709159	0.000126434326171875	0.475860595703125
196	0.478515625	11.5439429708543	0.000127716064453125	0.478271484375
197	0.48095703125	11.5683429707927	0.00012921142578125	0.480712890625
198	0.4833984375	11.5927429707311	0.0001297607421875	0.483123779296875
199	0.48583984375	11.6171429706695	0.000130706787109375	0.485565185546875
200	0.48828125	11.6415429706079	0.00013323974609375	0.488006591796875
201	0.49072265625	11.6659429705463	0.000133636474609375	0.49041748046875
202	0.4931640625	11.6903429704847	0.00013555908203125	0.492889404296875
203	0.49560546875	11.7147429704231	0.000136505126953125	0.495330810546875
204	0.498046875	11.7391429703615	0.00013818359375	0.49774169921875
205	0.50048828125	11.7635429702999	0.000139495849609375	0.50018310546875
206	0.5029296875	11.7879429702383	0.000141510009765625	0.502593994140625
207	0.50537109375	11.8123429701767	0.000143218994140625	0.505096435546875
208	0.5078125	11.8367429701151	0.000143951416015625	0.507537841796875
209	0.51025390625	11.8611429700535	0.000145843505859375	0.50994873046875
210	0.5126953125	11.8855429699919	0.00014691162109375	0.51239013671875
211	0.51513671875	11.9099429699303	0.00014794921875	0.514862060546875
212	0.517578125	11.9343429698687	0.000150054931640625	0.51727294921875
213	0.52001953125	11.9587429698071	0.000150787353515625	0.51971435546875
214	0.5224609375	11.9831429697455	0.00015301513671875	0.522064208984375
215	0.52490234375	12.0075429696839	0.00015460205078125	0.524505615234375
216	0.52734375	12.0319429696223	0.000156341552734375	0.527069091796875
217	0.52978515625	12.0563429695607	0.0001572265625	0.529449462890625
218	0.5322265625	12.0807429694991	0.000157958984375	0.5318603515625
219	0.53466796875	12.1051429694375	0.000158721923828125	0.5343017578125
220	0.537109375	12.1295429693758	0.00016015625	0.53668212890625
221	0.53955078125	12.1539429693142	0.000162109375	0.5391845703125
222	0.5419921875	12.1783429692526	0.00016351318359375	0.54156494140625
223	0.54443359375	12.202742969191	0.000165618896484375	0.544036865234375
224	0.546875	12.2271429691294	0.000166290283203125	0.5465087890625
225	0.54931640625	12.2515429690678	0.000168792724609375	0.548919677734375
226	0.5517578125	12.2759429690062	0.000170135498046875	0.551422119140625
227	0.55419921875	12.3003429689446	0.000172149658203125	0.5538330078125
228	0.556640625	12.324742968883	0.000173919677734375	0.5562744140625
229	0.55908203125	12.3491429688214	0.0001751708984375	0.558685302734375
230	0.5615234375	12.3735429687598	0.00017706298828125	0.56109619140625
231	0.56396484375	12.3979429686982	0.000178253173828125	0.56353759765625
232	0.56640625	12.4223429686366	0.00018035888671875	0.565948486328125
233	0.56884765625	12.446742968575	0.00018206787109375	0.56842041015625
234	0.5712890625	12.4711429685134	0.000184173583984375	0.570892333984375
235	0.57373046875	12.4955429684518	0.000184814453125	0.5733642578125
236	0.576171875	12.5199429683902	0.00018682861328125	0.57574462890625
237	0.57861328125	12.5443429683286	0.0001890869140625	0.578155517578125
238	0.5810546875	12.568742968267	0.000190521240234375	0.580596923828125
239	0.58349609375	12.5931429682054	0.00019244384765625	0.5830078125
240	0.5859375	12.6175429681438	0.000194122314453125	0.58544921875
241	0.58837890625	12.6419429680822	0.000196533203125	0.587890625
242	0.5908203125	12.6663429680206	0.000198638916015625	0.59033203125
243	0.59326171875	12.690742967959	0.000200347900390625	0.5927734375
244	0.595703125	12.7151429678973	0.000203338623046875	0.59521484375
245	0.59814453125	12.7395429678357	0.000204864501953125	0.597625732421875
246	0.6005859375	12.7639429677741	0.0002076416015625	0.600067138671875
247	0.60302734375	12.7883429677125	0.00020892333984375	0.6025390625
248	0.60546875	12.8127429676509	0.0002113037109375	0.604949951171875
249	0.60791015625	12.8371429675893	0.00021453857421875	0.60736083984375
250	0.6103515625	12.8615429675277	0.000215545654296875	0.60980224609375
251	0.61279296875	12.8859429674661	0.000218841552734375	0.612213134765625
252	0.615234375	12.9103429674045	0.000220184326171875	0.6146240234375
253	0.61767578125	12.9347429673429	0.000222808837890625	0.6171875
254	0.6201171875	12.9591429672813	0.0002255859375	0.6195068359375
255	0.62255859375	12.9835429672197	0.0002271728515625	0.6219482421875
256	0.625	13.0079429671581	0.000229461669921875	0.6243896484375
257	0.62744140625	13.0323429670965	0.00023236083984375	0.6268310546875
258	0.6298828125	13.0567429670349	0.000234710693359375	0.6292724609375
259	0.63232421875	13.0811429669733	0.000237701416015625	0.63165283203125
260	0.634765625	13.1055429669117	0.000240753173828125	0.634124755859375
261	0.63720703125	13.1299429668501	0.0002431640625	0.636627197265625
262	0.6396484375	13.1543429667885	0.000245941162109375	0.639007568359375
263	0.64208984375	13.1787429667269	0.0002496337890625	0.64141845703125
264	0.64453125	13.2031429666653	0.000251983642578125	0.643890380859375
265	0.64697265625	13.2275429666037	0.000255401611328125	0.64630126953125
266	0.6494140625	13.2519429665421	0.00025836181640625	0.648681640625
267	0.65185546875	13.2763429664805	0.000261474609375	0.651123046875
268	0.654296875	13.3007429664189	0.000264007568359375	0.653564453125
269	0.65673828125	13.3251429663572	0.0002679443359375	0.656036376953125
270	0.6591796875	13.3495429662956	0.00027044677734375	0.658416748046875
271	0.66162109375	13.373942966234	0.000273956298828125	0.66082763671875
272	0.6640625	13.3983429661724	0.00027783203125	0.663330078125
273	0.66650390625	13.4227429661108	0.000281097412109375	0.665771484375
274	0.6689453125	13.4471429660492	0.000284149169921875	0.66815185546875
275	0.67138671875	13.4715429659876	0.000287078857421875	0.670562744140625
276	0.673828125	13.495942965926	0.000291015625	0.673004150390625
277	0.67626953125	13.5203429658644	0.000293670654296875	0.67547607421875
278	0.6787109375	13.5447429658028	0.000297943115234375	0.677825927734375
279	0.68115234375	13.5691429657412	0.00030181884765625	0.680267333984375
280	0.68359375	13.5935429656796	0.000305145263671875	0.68341064453125
281	0.68603515625	13.617942965618	0.000308990478515625	0.68585205078125
282	0.6884765625	13.6423429655564	0.000312225341796875	0.68829345703125
283	0.69091796875	13.6667429654948	0.000316864013671875	0.69073486328125
284	0.693359375	13.6911429654332	0.000320526123046875	0.69317626953125
285	0.69580078125	13.7155429653716	0.0003245849609375	0.695587158203125
286	0.6982421875	13.73994296531	0.000328369140625	0.69805908203125
287	0.70068359375	13.7643429652484	0.000332366943359375	0.70050048828125
288	0.703125	13.7887429651868	0.000336883544921875	0.702911376953125
289	0.70556640625	13.8131429651252	0.000340423583984375	0.705322265625
290	0.7080078125	13.8375429650636	0.000345550537109375	0.707794189453125
291	0.71044921875	13.861942965002	0.000349334716796875	0.71014404296875
292	0.712890625	13.8863429649404	0.0003541259765625	0.71270751953125
293	0.71533203125	13.9107429648788	0.00035833740234375	0.715118408203125
294	0.7177734375	13.9351429648171	0.000362548828125	0.717529296875
295	0.72021484375	13.9595429647555	0.00036767578125	0.720001220703125
296	0.72265625	13.9839429646939	0.00037115478515625	0.72247314453125
297	0.72509765625	14.0083429646323	0.000376800537109375	0.724884033203125
298	0.7275390625	14.0327429645707	0.000380401611328125	0.727294921875
299	0.72998046875	14.0571429645091	0.000386505126953125	0.729705810546875
300	0.732421875	14.0815429644475	0.000389984130859375	0.732177734375
301	0.73486328125	14.1059429643859	0.000395416259765625	0.734619140625
302	0.7373046875	14.1303429643243	0.00040020751953125	0.736968994140625
303	0.73974609375	14.1547429642627	0.000405303955078125	0.739501953125
304	0.7421875	14.1791429642011	0.000410369873046875	0.74188232421875
305	0.74462890625	14.2035429641395	0.00041510009765625	0.744384765625
306	0.7470703125	14.2279429640779	0.000419342041015625	0.746826171875
307	0.74951171875	14.2523429640163	0.00042486572265625	0.749237060546875
308	0.751953125	14.2767429639547	0.00043084716796875	0.7513427734375
309	0.75439453125	14.3011429638931	0.000436920166015625	0.7537841796875
310	0.7568359375	14.3255429638315	0.000440673828125	0.7562255859375
311	0.75927734375	14.3499429637699	0.000447296142578125	0.758056640625
312	0.76171875	14.3743429637083	0.00045263671875	0.7611083984375
313	0.76416015625	14.3987429636467	0.000459014892578125	0.7635498046875
314	0.7666015625	14.4231429635851	0.000463531494140625	0.7659912109375
315	0.76904296875	14.4475429635235	0.000470184326171875	0.76812744140625
316	0.771484375	14.4719429634619	0.000475860595703125	0.77117919921875
317	0.77392578125	14.4963429634003	0.000480865478515625	0.7733154296875
318	0.7763671875	14.5207429633386	0.000487548828125	0.7757568359375
319	0.77880859375	14.545142963277	0.000491973876953125	0.77789306640625
320	0.78125	14.5695429632154	0.000497467041015625	0.7806396484375
321	0.78369140625	14.5939429631538	0.00050537109375	0.78338623046875
322	0.7861328125	14.6183429630922	0.00051177978515625	0.784912109375
323	0.78857421875	14.6427429630306	0.00051788330078125	0.78765869140625
324	0.791015625	14.667142962969	0.00052398681640625	0.79010009765625
325	0.79345703125	14.6915429629074	0.00053070068359375	0.7928466796875
326	0.7958984375	14.7159429628458	0.000537109375	0.7952880859375
327	0.79833984375	14.7403429627842	0.000546875	0.797119140625
328	0.80078125	14.7647429627226	0.000552978515625	0.8001708984375
329	0.80322265625	14.789142962661	0.000560302734375	0.80230712890625
330	0.8056640625	14.8135429625994	0.00056640625	0.804443359375
331	0.80810546875	14.8379429625378	0.00057403564453125	0.80718994140625
332	0.810546875	14.8623429624762	0.0005810546875	0.80963134765625
333	0.81298828125	14.8867429624146	0.00058807373046875	0.8123779296875
334	0.8154296875	14.911142962353	0.00059539794921875	0.8148193359375
335	0.81787109375	14.9355429622914	0.00060211181640625	0.81695556640625
336	0.8203125	14.9599429622298	0.0006097412109375	0.81939697265625
337	0.82275390625	14.9843429621682	0.00061737060546875	0.8221435546875
338	0.8251953125	15.0087429621066	0.000626220703125	0.823974609375
339	0.82763671875	15.033142962045	0.00063262939453125	0.826416015625
340	0.830078125	15.0575429619834	0.000640869140625	0.8294677734375
341	0.83251953125	15.0819429619218	0.00064971923828125	0.83160400390625
342	0.8349609375	15.1063429618602	0.0006585693359375	0.8343505859375
343	0.83740234375	15.1307429617985	0.0006671142578125	0.8367919921875
344	0.83984375	15.1551429617369	0.00067535400390625	0.838623046875
345	0.84228515625	15.1795429616753	0.0006829833984375	0.84136962890625
346	0.8447265625	15.2039429616137	0.00069091796875	0.8441162109375
347	0.84716796875	15.2283429615521	0.0007000732421875	0.845947265625
348	0.849609375	15.2527429614905	0.0007086181640625	0.8489990234375
349	0.85205078125	15.2771429614289	0.00071746826171875	0.850830078125
350	0.8544921875	15.3015429613673	0.00072601318359375	0.8538818359375
351	0.85693359375	15.3259429613057	0.00073638916015625	0.855712890625
352	0.859375	15.3503429612441	0.000745849609375	0.85906982421875
353	0.86181640625	15.3747429611825	0.0007550048828125	0.8612060546875
354	0.8642578125	15.3991429611209	0.00076507568359375	0.8636474609375
355	0.86669921875	15.4235429610593	0.00077484130859375	0.86639404296875
356	0.869140625	15.4479429609977	0.0007855224609375	0.86822509765625
357	0.87158203125	15.4723429609361	0.0007952880859375	0.870361328125
358	0.8740234375	15.4967429608745	0.0008050537109375	0.8734130859375
359	0.87646484375	15.5211429608129	0.000814208984375	0.8758544921875
360	0.87890625	15.5455429607513	0.0008245849609375	0.87860107421875
361	0.88134765625	15.5699429606897	0.00083587646484375	0.88043212890625
362	0.8837890625	15.5943429606281	0.00084716796875	0.882568359375
363	0.88623046875	15.6187429605665	0.00085845947265625	0.8856201171875
364	0.888671875	15.6431429605049	0.0008697509765625	0.88775634765625
365	0.89111328125	15.6675429604433	0.00088104248046875	0.89080810546875
366	0.8935546875	15.6919429603817	0.00089263916015625	0.89263916015625
367	0.89599609375	15.71634296032	0.00090423583984375	0.89508056640625
368	0.8984375	15.7407429602584	0.0009161376953125	0.89752197265625
369	0.90087890625	15.7651429601968	0.0009283447265625	0.89996337890625
370	0.9033203125	15.7895429601352	0.00094085693359375	0.902099609375
371	0.90576171875	15.8139429600736	0.000953369140625	0.904541015625
372	0.908203125	15.838342960012	0.000966796875	0.90728759765625
373	0.91064453125	15.8627429599504	0.00097991943359375	0.9100341796875
374	0.9130859375	15.8871429598888	0.0009930419921875	0.91217041015625
375	0.91552734375	15.9115429598272	0.001007080078125	0.91461181640625
376	0.91796875	15.9359429597656	0.00102081298828125	0.916748046875
377	0.92041015625	15.960342959704	0.00103485107421875	0.9197998046875
378	0.9228515625	15.9847429596424	0.0010491943359375	0.92193603515625
379	0.92529296875	16.0091429595808	0.001063232421875	0.92437744140625
380	0.927734375	16.0335429595192	0.0010784912109375	0.9271240234375
381	0.93017578125	16.0579429594576	0.0010943603515625	0.92926025390625
382	0.9326171875	16.082342959396	0.00110992431640625	0.93231201171875
383	0.93505859375	16.1067429593344	0.00112548828125	0.9344482421875
384	0.9375	16.1311429592728	0.001141357421875	0.936279296875
385	0.93994140625	16.1555429592112	0.001158447265625	0.9393310546875
386	0.9423828125	16.1799429591496	0.00117523193359375	0.941162109375
387	0.94482421875	16.204342959088	0.00119110107421875	0.94451904296875
388	0.947265625	16.2287429590264	0.001207275390625	0.94635009765625
389	0.94970703125	16.2531429589648	0.001224365234375	0.9490966796875
390	0.9521484375	16.2775429589032	0.00124176025390625	0.9515380859375
391	0.95458984375	16.3019429588416	0.001259765625	0.95367431640625
392	0.95703125	16.3263429587799	0.00127899169921875	0.95672607421875
393	0.95947265625	16.3507429587183	0.0012994384765625	0.958251953125
394	0.9619140625	16.3751429586567	0.0013177490234375	0.9613037109375
395	0.96435546875	16.3995429585951	0.0013348388671875	0.96343994140625
396	0.966796875	16.4239429585335	0.00135894775390625	0.96649169921875
397	0.96923828125	16.4483429584719	0.00137939453125	0.96832275390625
398	0.9716796875	16.4727429584103	0.00139862060546875	0.97076416015625
399	0.97412109375	16.4971429583487	0.00141876220703125	0.97320556640625
400	0.9765625	16.5215429582871	0.00143829345703125	0.9759521484375
401	0.97900390625	16.5459429582255	0.00146087646484375	0.97808837890625
402	0.9814453125	16.5703429581639	0.0014837646484375	0.9808349609375
403	0.98388671875	16.5947429581023	0.001507568359375	0.982666015625
404	0.986328125	16.6191429580407	0.00152984619140625	0.98541259765625
405	0.98876953125	16.6435429579791	0.00155364990234375	0.9881591796875
406	0.9912109375	16.6679429579175	0.00157806396484375	0.99090576171875
407	0.99365234375	16.6923429578559	0.00160369873046875	0.9930419921875
408	0.99609375	16.7167429577943	0.001629638671875	0.9954833984375
409	0.99853515625	16.7411429577327	0.00165435791015625	0.99822998046875
410	1.0009765625	16.7655429576711	0.001680908203125	1.00006103515625
411	1.00341796875	16.7899429576095	0.0017071533203125	1.0028076171875
412	1.005859375	16.8143429575479	0.00173492431640625	1.00494384765625
413	1.00830078125	16.8387429574863	0.0017633056640625	1.00677490234375
414	1.0107421875	16.8631429574247	0.00179229736328125	1.00982666015625
415	1.01318359375	16.8875429573631	0.00182037353515625	1.0125732421875
416	1.015625	16.9119429573014	0.0018499755859375	1.0150146484375
417	1.01806640625	16.9363429572398	0.0018804931640625	1.0174560546875
418	1.0205078125	16.9607429571782	0.00191131591796875	1.0198974609375
419	1.02294921875	16.9851429571166	0.0019439697265625	1.021728515625
420	1.025390625	17.009542957055	0.00197479248046875	1.02447509765625
421	1.02783203125	17.0339429569934	0.00200592041015625	1.02630615234375
422	1.0302734375	17.0583429569318	0.002039794921875	1.02935791015625
423	1.03271484375	17.0827429568702	0.002071533203125	1.0321044921875
424	1.03515625	17.1071429568086	0.00210662841796875	1.03424072265625
425	1.03759765625	17.131542956747	0.0021405029296875	1.03729248046875
426	1.0400390625	17.1559429566854	0.0021759033203125	1.03912353515625
427	1.04248046875	17.1803429566238	0.00221221923828125	1.04156494140625
428	1.044921875	17.2047429565622	0.00224884033203125	1.04339599609375
429	1.04736328125	17.2291429565006	0.00228515625	1.046142578125
430	1.0498046875	17.253542956439	0.002322998046875	1.04888916015625
431	1.05224609375	17.2779429563774	0.002362060546875	1.05072021484375
432	1.0546875	17.3023429563158	0.0024029541015625	1.0540771484375
433	1.05712890625	17.3267429562542	0.00244415283203125	1.0565185546875
434	1.0595703125	17.3511429561926	0.00248321533203125	1.05865478515625
435	1.06201171875	17.375542956131	0.00252197265625	1.06109619140625
436	1.064453125	17.3999429560694	0.00256378173828125	1.0638427734375
437	1.06689453125	17.4243429560078	0.00260589599609375	1.06597900390625
438	1.0693359375	17.4487429559462	0.00264923095703125	1.06842041015625
439	1.07177734375	17.4731429558846	0.0026910400390625	1.07086181640625
440	1.07421875	17.497542955823	0.00273529052734375	1.0736083984375
441	1.07666015625	17.5219429557613	0.002779541015625	1.07574462890625
442	1.0791015625	17.5463429556997	0.00282470703125	1.077880859375
443	1.08154296875	17.5707429556381	0.0028704833984375	1.08062744140625
444	1.083984375	17.5951429555765	0.002916259765625	1.082763671875
445	1.08642578125	17.6195429555149	0.00296295166015625	1.08551025390625
446	1.0888671875	17.6439429554533	0.00301025390625	1.08856201171875
447	1.09130859375	17.6683429553917	0.003057861328125	1.090087890625
448	1.09375	17.6927429553301	0.0031060791015625	1.092529296875
449	1.09619140625	17.7171429552685	0.003154296875	1.0955810546875
450	1.0986328125	17.7415429552069	0.00320465087890625	1.097412109375
451	1.10107421875	17.7659429551453	0.00325469970703125	1.1004638671875
452	1.103515625	17.7903429550837	0.0033050537109375	1.10260009765625
453	1.10595703125	17.8147429550221	0.0033544921875	1.10443115234375
454	1.1083984375	17.8391429549605	0.00340576171875	1.107177734375
455	1.11083984375	17.8635429548989	0.00345733642578125	1.10992431640625
456	1.11328125	17.8879429548373	0.0035089111328125	1.1126708984375
457	1.11572265625	17.9123429547757	0.00356048583984375	1.11419677734375
458	1.1181640625	17.9367429547141	0.00361175537109375	1.11724853515625
459	1.12060546875	17.9611429546525	0.0036639404296875	1.1199951171875
460	1.123046875	17.9855429545909	0.00371612548828125	1.1212158203125
461	1.12548828125	18.0099429545293	0.0037677001953125	1.124267578125
462	1.1279296875	18.0343429544677	0.0038189697265625	1.126708984375
463	1.13037109375	18.0587429544061	0.0038702392578125	1.12945556640625
464	1.1328125	18.0831429543445	0.00392059326171875	1.13189697265625
465	1.13525390625	18.1075429542828	0.003970947265625	1.1346435546875
466	1.1376953125	18.1319429542212	0.00401947021484375	1.13677978515625
467	1.14013671875	18.1563429541596	0.0040673828125	1.138916015625
468	1.142578125	18.180742954098	0.00411407470703125	1.14166259765625
469	1.14501953125	18.2051429540364	0.00416046142578125	1.143798828125
470	1.1474609375	18.2295429539748	0.0042047119140625	1.1468505859375
471	1.14990234375	18.2539429539132	0.00424774169921875	1.14898681640625
472	1.15234375	18.2783429538516	0.00428985595703125	1.15142822265625
473	1.15478515625	18.30274295379	0.0043310546875	1.15386962890625
474	1.1572265625	18.3271429537284	0.0043701171875	1.15631103515625
475	1.15966796875	18.3515429536668	0.0044085693359375	1.158447265625
476	1.162109375	18.3759429536052	0.0044451904296875	1.160888671875
477	1.16455078125	18.4003429535436	0.004481201171875	1.16302490234375
478	1.1669921875	18.424742953482	0.004515380859375	1.16607666015625
479	1.16943359375	18.4491429534204	0.00454864501953125	1.1688232421875
480	1.171875	18.4735429533588	0.00458099365234375	1.17095947265625
481	1.17431640625	18.4979429532972	0.00461212158203125	1.173095703125
482	1.1767578125	18.5223429532356	0.004642333984375	1.175537109375
483	1.17919921875	18.546742953174	0.004671630859375	1.1785888671875
484	1.181640625	18.5711429531124	0.00470001220703125	1.1798095703125
485	1.18408203125	18.5955429530508	0.0047271728515625	1.1834716796875
486	1.1865234375	18.6199429529892	0.0047540283203125	1.185302734375
487	1.18896484375	18.6443429529276	0.00477996826171875	1.187744140625
488	1.19140625	18.668742952866	0.00480499267578125	1.18988037109375
489	1.19384765625	18.6931429528044	0.0048291015625	1.192626953125
490	1.1962890625	18.7175429527427	0.0048529052734375	1.19476318359375
491	1.19873046875	18.7419429526811	0.00487579345703125	1.197509765625
492	1.201171875	18.7663429526195	0.0048980712890625	1.20025634765625
493	1.19873046875	18.7907429525579	0.00487579345703125	1.19781494140625
494	1.1962890625	18.8151429524963	0.004852294921875	1.195068359375
495	1.19384765625	18.8395429524347	0.0048284912109375	1.19293212890625
496	1.19140625	18.8639429523731	0.00480377197265625	1.190185546875
497	1.18896484375	18.8883429523115	0.0047784423828125	1.187744140625
498	1.1865234375	18.9127429522499	0.004752197265625	1.18560791015625
499	1.18408203125	18.9371429521883	0.00472503662109375	1.18316650390625
500	1.181640625	18.9615429521267	0.0046966552734375	1.18011474609375
501	1.17919921875	18.9859429520651	0.00466827392578125	1.177978515625
502	1.1767578125	19.0103429520035	0.00463836669921875	1.17584228515625
503	1.17431640625	19.0347429519419	0.00460723876953125	1.1737060546875
504	1.171875	19.0591429518803	0.00457550048828125	1.17095947265625
505	1.16943359375	19.0835429518187	0.00454193115234375	1.16851806640625
506	1.1669921875	19.1079429517571	0.00450836181640625	1.165771484375
507	1.16455078125	19.1323429516955	0.00447296142578125	1.16363525390625
508	1.162109375	19.1567429516339	0.00443572998046875	1.16119384765625
509	1.15966796875	19.1811429515723	0.0043975830078125	1.158447265625
510	1.1572265625	19.2055429515107	0.00435821533203125	1.156005859375
511	1.15478515625	19.2299429514491	0.004317626953125	1.15386962890625
512	1.15234375	19.2543429513875	0.00427520751953125	1.15142822265625
513	1.14990234375	19.2787429513259	0.004232177734375	1.14898681640625
514	1.1474609375	19.3031429512642	0.00418701171875	1.14593505859375
515	1.14501953125	19.3275429512026	0.00414031982421875	1.14410400390625
516	1.142578125	19.351942951141	0.0040924072265625	1.141357421875
517	1.14013671875	19.3763429510794	0.00404327392578125	1.13922119140625
518	1.1376953125	19.4007429510178	0.00399322509765625	1.13677978515625
519	1.13525390625	19.4251429509562	0.00394256591796875	1.134033203125
520	1.1328125	19.4495429508946	0.00389129638671875	1.131591796875
521	1.13037109375	19.473942950833	0.003839111328125	1.12945556640625
522	1.1279296875	19.4983429507714	0.00378509521484375	1.126708984375
523	1.12548828125	19.5227429507098	0.00373199462890625	1.12457275390625
524	1.123046875	19.5471429506482	0.00367767333984375	1.12213134765625
525	1.12060546875	19.5715429505866	0.0036236572265625	1.11907958984375
526	1.1181640625	19.595942950525	0.0035699462890625	1.11724853515625
527	1.11572265625	19.6203429504634	0.0035162353515625	1.114501953125
528	1.11328125	19.6447429504018	0.00346282958984375	1.112060546875
529	1.11083984375	19.6691429503402	0.00340850830078125	1.109619140625
530	1.1083984375	19.6935429502786	0.00335601806640625	1.107177734375
531	1.10595703125	19.717942950217	0.00330230712890625	1.10504150390625
532	1.103515625	19.7423429501554	0.00324859619140625	1.102294921875
533	1.10107421875	19.7667429500938	0.003197021484375	1.10015869140625
534	1.0986328125	19.7911429500322	0.0031451416015625	1.09771728515625
535	1.09619140625	19.8155429499706	0.00309295654296875	1.09527587890625
536	1.09375	19.839942949909	0.0030413818359375	1.09283447265625
537	1.09130859375	19.8643429498474	0.00299041748046875	1.0906982421875
538	1.0888671875	19.8887429497858	0.00293975830078125	1.0882568359375
539	1.08642578125	19.9131429497241	0.00289031982421875	1.08612060546875
540	1.083984375	19.9375429496625	0.00284088134765625	1.08306884765625
541	1.08154296875	19.9619429496009	0.0027923583984375	1.08123779296875
542	1.0791015625	19.9863429495393	0.00274444580078125	1.07818603515625
543	1.07666015625	20.0107429494777	0.0026971435546875	1.075439453125
544	1.07421875	20.0351429494161	0.002650146484375	1.07330322265625
545	1.07177734375	20.0595429493545	0.002603759765625	1.070556640625
546	1.0693359375	20.0839429492929	0.00255767822265625	1.0687255859375
547	1.06689453125	20.1083429492313	0.0025115966796875	1.06597900390625
548	1.064453125	20.1327429491697	0.00246734619140625	1.06353759765625
549	1.06201171875	20.1571429491081	0.00242279052734375	1.06109619140625
550	1.0595703125	20.1815429490465	0.00237884521484375	1.05865478515625
551	1.05712890625	20.2059429489849	0.00233612060546875	1.05621337890625
552	1.0546875	20.2303429489233	0.00229339599609375	1.05377197265625
553	1.05224609375	20.2547429488617	0.00225250244140625	1.051025390625
554	1.0498046875	20.2791429488001	0.0022113037109375	1.0491943359375
555	1.04736328125	20.3035429487385	0.0021710205078125	1.04644775390625
556	1.044921875	20.3279429486769	0.00213165283203125	1.04339599609375
557	1.04248046875	20.3523429486153	0.00209136962890625	1.04156494140625
558	1.0400390625	20.3767429485537	0.00205291748046875	1.0394287109375
559	1.03759765625	20.4011429484921	0.00201416015625	1.036376953125
560	1.03515625	20.4255429484305	0.0019769287109375	1.033935546875
561	1.03271484375	20.4499429483689	0.00194091796875	1.031494140625
562	1.0302734375	20.4743429483073	0.001904296875	1.02935791015625
563	1.02783203125	20.4987429482456	0.00186920166015625	1.0272216796875
564	1.025390625	20.523142948184	0.00183380126953125	1.024169921875
565	1.02294921875	20.5475429481224	0.0017999267578125	1.0223388671875
566	1.0205078125	20.5719429480608	0.001766357421875	1.0198974609375
567	1.01806640625	20.5963429479992	0.0017333984375	1.01715087890625
568	1.015625	20.6207429479376	0.001700439453125	1.014404296875
569	1.01318359375	20.645142947876	0.0016693115234375	1.011962890625
570	1.0107421875	20.6695429478144	0.001636962890625	1.0101318359375
571	1.00830078125	20.6939429477528	0.00160675048828125	1.0076904296875
572	1.005859375	20.7183429476912	0.00157623291015625	1.00494384765625
573	1.00341796875	20.7427429476296	0.0015472412109375	1.002197265625
574	1.0009765625	20.767142947568	0.00151824951171875	1.00006103515625
575	0.99853515625	20.7915429475064	0.00148956298828125	0.9979248046875
576	0.99609375	20.8159429474448	0.00146270751953125	0.994873046875
577	0.99365234375	20.8403429473832	0.00143402099609375	0.9930419921875
578	0.9912109375	20.8647429473216	0.00140716552734375	0.99029541015625
579	0.98876953125	20.88914294726	0.00138153076171875	0.98785400390625
580	0.986328125	20.9135429471984	0.001356201171875	0.98541259765625
581	0.98388671875	20.9379429471368	0.00133087158203125	0.98297119140625
582	0.9814453125	20.9623429470752	0.00130645751953125	0.9808349609375
583	0.97900390625	20.9867429470136	0.001282958984375	0.97808837890625
584	0.9765625	21.011142946952	0.00126007080078125	0.9759521484375
585	0.97412109375	21.0355429468904	0.0012371826171875	0.9735107421875
586	0.9716796875	21.0599429468288	0.00121368408203125	0.970458984375
587	0.96923828125	21.0843429467672	0.0011920166015625	0.968017578125
588	0.966796875	21.1087429467055	0.001170654296875	0.96588134765625
589	0.96435546875	21.1331429466439	0.00114898681640625	0.96343994140625
590	0.9619140625	21.1575429465823	0.00112884521484375	0.960693359375
591	0.95947265625	21.1819429465207	0.00110809326171875	0.95855712890625
592	0.95703125	21.2063429464591	0.00108856201171875	0.955810546875
593	0.95458984375	21.2307429463975	0.0010693359375	0.95367431640625
594	0.9521484375	21.2551429463359	0.0010516357421875	0.95123291015625
595	0.94970703125	21.2795429462743	0.00103271484375	0.94818115234375
596	0.947265625	21.3039429462127	0.00101470947265625	0.946044921875
597	0.94482421875	21.3283429461511	0.0009979248046875	0.94451904296875
598	0.9423828125	21.3527429460895	0.00097991943359375	0.94146728515625
599	0.93994140625	21.3771429460279	0.00096405029296875	0.93902587890625
600	0.9375	21.4015429459663	0.000947265625	0.936279296875
601	0.93505859375	21.4259429459047	0.00093170166015625	0.93414306640625
602	0.9326171875	21.4503429458431	0.0009161376953125	0.9320068359375
603	0.93017578125	21.4747429457815	0.000902099609375	0.92926025390625
604	0.927734375	21.4991429457199	0.0008868408203125	0.92681884765625
605	0.92529296875	21.5235429456583	0.00087127685546875	0.92437744140625
606	0.9228515625	21.5479429455967	0.0008575439453125	0.9222412109375
607	0.92041015625	21.5723429455351	0.0008441162109375	0.919189453125
608	0.91796875	21.5967429454735	0.00083160400390625	0.91705322265625
609	0.91552734375	21.6211429454119	0.00081756591796875	0.91461181640625
610	0.9130859375	21.6455429453503	0.00080474853515625	0.91217041015625
611	0.91064453125	21.6699429452887	0.00079254150390625	0.909423828125
612	0.908203125	21.694342945227	0.00077911376953125	0.90728759765625
613	0.90576171875	21.7187429451654	0.00076751708984375	0.90545654296875
614	0.9033203125	21.7431429451038	0.00075531005859375	0.902099609375
615	0.90087890625	21.7675429450422	0.0007440185546875	0.89996337890625
616	0.8984375	21.7919429449806	0.00073272705078125	0.8978271484375
617	0.89599609375	21.816342944919	0.00072113037109375	0.89508056640625
618	0.8935546875	21.8407429448574	0.00071136474609375	0.89263916015625
619	0.89111328125	21.8651429447958	0.000699462890625	0.89019775390625
620	0.888671875	21.8895429447342	0.00068939208984375	0.8880615234375
621	0.88623046875	21.9139429446726	0.00067901611328125	0.88531494140625
622	0.8837890625	21.938342944611	0.0006689453125	0.8831787109375
623	0.88134765625	21.9627429445494	0.00065887451171875	0.88043212890625
624	0.87890625	21.9871429444878	0.0006494140625	0.87799072265625
625	0.87646484375	22.0115429444262	0.00064117431640625	0.875244140625
626	0.8740234375	22.0359429443646	0.000631103515625	0.87371826171875
627	0.87158203125	22.060342944303	0.00062225341796875	0.87066650390625
628	0.869140625	22.0847429442414	0.00061431884765625	0.86822509765625
629	0.86669921875	22.1091429441798	0.00060577392578125	0.8660888671875
630	0.8642578125	22.1335429441182	0.00059722900390625	0.86273193359375
631	0.86181640625	22.1579429440566	0.000589599609375	0.86090087890625
632	0.859375	22.182342943995	0.00058135986328125	0.85845947265625
633	0.85693359375	22.2067429439334	0.00057220458984375	0.85601806640625
634	0.8544921875	22.2311429438718	0.0005645751953125	0.85418701171875
635	0.85205078125	22.2555429438102	0.000556640625	0.850830078125
636	0.849609375	22.2799429437486	0.0005499267578125	0.8489990234375
637	0.84716796875	22.3043429436869	0.00054168701171875	0.8465576171875
638	0.8447265625	22.3287429436253	0.0005352783203125	0.8441162109375
639	0.84228515625	22.3531429435637	0.0005279541015625	0.84075927734375
640	0.83984375	22.3775429435021	0.00052093505859375	0.8392333984375
641	0.83740234375	22.4019429434405	0.0005145263671875	0.8367919921875
642	0.8349609375	22.4263429433789	0.000506591796875	0.8343505859375
643	0.83251953125	22.4507429433173	0.0005010986328125	0.83221435546875
644	0.830078125	22.4751429432557	0.000494537353515625	0.82916259765625
645	0.82763671875	22.4995429431941	0.000488861083984375	0.8270263671875
646	0.8251953125	22.5239429431325	0.0004822998046875	0.82427978515625
647	0.82275390625	22.5483429430709	0.000475982666015625	0.8221435546875
648	0.8203125	22.5727429430093	0.000469329833984375	0.82000732421875
649	0.81787109375	22.5971429429477	0.000464019775390625	0.81695556640625
650	0.8154296875	22.6215429428861	0.000458892822265625	0.8148193359375
651	0.81298828125	22.6459429428245	0.00045196533203125	0.811767578125
652	0.810546875	22.6703429427629	0.000446502685546875	0.80963134765625
653	0.80810546875	22.6947429427013	0.00044000244140625	0.806884765625
654	0.8056640625	22.7191429426397	0.000433868408203125	0.80535888671875
655	0.80322265625	22.7435429425781	0.000429046630859375	0.8026123046875
656	0.80078125	22.7679429425165	0.0004237060546875	0.79986572265625
657	0.79833984375	22.7923429424549	0.000418914794921875	0.79742431640625
658	0.7958984375	22.8167429423933	0.000414215087890625	0.7952880859375
659	0.79345703125	22.8411429423317	0.000409271240234375	0.79254150390625
660	0.791015625	22.8655429422701	0.000404815673828125	0.7904052734375
661	0.78857421875	22.8899429422084	0.0004000244140625	0.787353515625
662	0.7861328125	22.9143429421468	0.000395660400390625	0.78521728515625
663	0.78369140625	22.9387429420852	0.0003895263671875	0.78277587890625
664	0.78125	22.9631429420236	0.00038543701171875	0.78033447265625
665	0.77880859375	22.987542941962	0.000380584716796875	0.7781982421875
666	0.7763671875	23.0119429419004	0.00037603759765625	0.7757568359375
667	0.77392578125	23.0363429418388	0.000371368408203125	0.77362060546875
668	0.771484375	23.0607429417772	0.00036566162109375	0.7708740234375
669	0.76904296875	23.0851429417156	0.0003623046875	0.76812744140625
670	0.7666015625	23.109542941654	0.000356903076171875	0.7659912109375
671	0.76416015625	23.1339429415924	0.000353179931640625	0.76385498046875
672	0.76171875	23.1583429415308	0.00034912109375	0.7611083984375
673	0.75927734375	23.1827429414692	0.00034466552734375	0.75897216796875
674	0.7568359375	23.2071429414076	0.000339691162109375	0.7562255859375
675	0.75439453125	23.231542941346	0.00033612060546875	0.7537841796875
676	0.751953125	23.2559429412844	0.000332244873046875	0.7513427734375
677	0.74951171875	23.2803429412228	0.00032855224609375	0.749267578125
678	0.7470703125	23.3047429411612	0.000324371337890625	0.746826171875
679	0.74462890625	23.3291429410996	0.000320098876953125	0.744384765625
680	0.7421875	23.353542941038	0.000316558837890625	0.741943359375
681	0.73974609375	23.3779429409764	0.000312713623046875	0.739471435546875
682	0.7373046875	23.4023429409148	0.0003095703125	0.737060546875
683	0.73486328125	23.4267429408532	0.00030523681640625	0.734588623046875
684	0.732421875	23.4511429407916	0.0003013916015625	0.732208251953125
685	0.72998046875	23.47554294073	0.00029901123046875	0.72979736328125
686	0.7275390625	23.4999429406683	0.000295074462890625	0.727294921875
687	0.72509765625	23.5243429406067	0.000292144775390625	0.724853515625
688	0.72265625	23.5487429405451	0.000288543701171875	0.722412109375
689	0.72021484375	23.5731429404835	0.00028631591796875	0.719940185546875
690	0.7177734375	23.5975429404219	0.000281768798828125	0.717498779296875
691	0.71533203125	23.6219429403603	0.000277313232421875	0.715087890625
692	0.712890625	23.6463429402987	0.000274261474609375	0.712646484375
693	0.71044921875	23.6707429402371	0.000270538330078125	0.710205078125
694	0.7080078125	23.6951429401755	0.00026812744140625	0.707763671875
695	0.70556640625	23.7195429401139	0.00026446533203125	0.705352783203125
696	0.703125	23.7439429400523	0.000262176513671875	0.70294189453125
697	0.70068359375	23.7683429399907	0.000259185791015625	0.70050048828125
698	0.6982421875	23.7927429399291	0.0002557373046875	0.697998046875
699	0.69580078125	23.8171429398675	0.000253173828125	0.695556640625
700	0.693359375	23.8415429398059	0.000248870849609375	0.69317626953125
701	0.69091796875	23.8659429397443	0.000246826171875	0.69073486328125
702	0.6884765625	23.8903429396827	0.00024371337890625	0.688232421875
703	0.68603515625	23.9147429396211	0.00024114990234375	0.685791015625
704	0.68359375	23.9391429395595	0.00023828125	0.683349609375
705	0.68115234375	23.9635429394979	0.000236114501953125	0.680999755859375
706	0.6787109375	23.9879429394363	0.000234130859375	0.67852783203125
707	0.67626953125	24.0123429393747	0.00023114013671875	0.67608642578125
708	0.673828125	24.0367429393131	0.000228363037109375	0.673675537109375
709	0.67138671875	24.0611429392515	0.000225433349609375	0.67120361328125
710	0.6689453125	24.0855429391898	0.000223602294921875	0.66876220703125
711	0.66650390625	24.1099429391282	0.0002203369140625	0.66632080078125
712	0.6640625	24.1343429390666	0.00021832275390625	0.663848876953125
713	0.66162109375	24.158742939005	0.000215423583984375	0.66143798828125
714	0.6591796875	24.1831429389434	0.00021307373046875	0.659027099609375
715	0.65673828125	24.2075429388818	0.000211151123046875	0.65655517578125
716	0.654296875	24.2319429388202	0.000208221435546875	0.654083251953125
717	0.65185546875	24.2563429387586	0.000206451416015625	0.651641845703125
718	0.6494140625	24.280742938697	0.00020361328125	0.649261474609375
719	0.64697265625	24.3051429386354	0.00020196533203125	0.646881103515625
720	0.64453125	24.3295429385738	0.00020025634765625	0.64434814453125
721	0.64208984375	24.3539429385122	0.000198028564453125	0.641937255859375
722	0.6396484375	24.3783429384506	0.000195831298828125	0.6395263671875
723	0.63720703125	24.402742938389	0.00019342041015625	0.637115478515625
724	0.634765625	24.4271429383274	0.000192291259765625	0.63458251953125
725	0.63232421875	24.4515429382658	0.000189300537109375	0.632171630859375
726	0.6298828125	24.4759429382042	0.00018792724609375	0.629730224609375
727	0.62744140625	24.5003429381426	0.00018621826171875	0.6273193359375
728	0.625	24.524742938081	0.00018414306640625	0.624847412109375
729	0.62255859375	24.5491429380194	0.000182464599609375	0.622467041015625
730	0.6201171875	24.5735429379578	0.000180267333984375	0.620025634765625
731	0.61767578125	24.5979429378962	0.00017828369140625	0.6175537109375
732	0.615234375	24.6223429378346	0.000176025390625	0.615081787109375
733	0.61279296875	24.646742937773	0.000175262451171875	0.6126708984375
734	0.6103515625	24.6711429377114	0.000172576904296875	0.6102294921875
735	0.60791015625	24.6955429376497	0.000171142578125	0.6077880859375
736	0.60546875	24.7199429375881	0.00016949462890625	0.605377197265625
737	0.60302734375	24.7443429375265	0.000167572021484375	0.6029052734375
738	0.6005859375	24.7687429374649	0.0001661376953125	0.600494384765625
739	0.59814453125	24.7931429374033	0.0001644287109375	0.5980224609375
740	0.595703125	24.8175429373417	0.000163604736328125	0.595550537109375
741	0.59326171875	24.8419429372801	0.000160888671875	0.5931396484375
742	0.5908203125	24.8663429372185	0.000159698486328125	0.5906982421875
743	0.58837890625	24.8907429371569	0.000157806396484375	0.588287353515625
744	0.5859375	24.9151429370953	0.00015625	0.58587646484375
745	0.58349609375	24.9395429370337	0.0001552734375	0.5833740234375
746	0.5810546875	24.9639429369721	0.000152801513671875	0.5809326171875
747	0.57861328125	24.9883429369105	0.00015203857421875	0.578460693359375
748	0.576171875	25.0127429368489	0.000149993896484375	0.5760498046875
749	0.57373046875	25.0371429367873	0.000149078369140625	0.573638916015625
750	0.5712890625	25.0615429367257	0.00014703369140625	0.5711669921875
751	0.56884765625	25.0859429366641	0.000145660400390625	0.56878662109375
752	0.56640625	25.1103429366025	0.00014373779296875	0.56634521484375
753	0.56396484375	25.1347429365409	0.000142303466796875	0.563873291015625
754	0.5615234375	25.1591429364793	0.00014141845703125	0.561431884765625
755	0.55908203125	25.1835429364177	0.0001400146484375	0.55902099609375
756	0.556640625	25.2079429363561	0.000138763427734375	0.55657958984375
757	0.55419921875	25.2323429362945	0.000136993408203125	0.554107666015625
758	0.5517578125	25.2567429362329	0.000135650634765625	0.5516357421875
759	0.54931640625	25.2811429361712	0.000133880615234375	0.5491943359375
760	0.546875	25.3055429361096	0.000132965087890625	0.546783447265625
761	0.54443359375	25.329942936048	0.00013250732421875	0.544342041015625
762	0.5419921875	25.3543429359864	0.000130462646484375	0.54193115234375
763	0.53955078125	25.3787429359248	0.000130096435546875	0.539459228515625
764	0.537109375	25.4031429358632	0.000128326416015625	0.537017822265625
765	0.53466796875	25.4275429358016	0.0001273193359375	0.53460693359375
766	0.5322265625	25.45194293574	0.0001259765625	0.532135009765625
767	0.52978515625	25.4763429356784	0.000125091552734375	0.529754638671875
768	0.52734375	25.5007429356168	0.000123779296875	0.527252197265625
769	0.52490234375	25.5251429355552	0.00012249755859375	0.5247802734375
770	0.5224609375	25.5495429354936	0.000122222900390625	0.522430419921875
771	0.52001953125	25.573942935432	0.00012030029296875	0.5198974609375
772	0.517578125	25.5983429353704	0.00011962890625	0.51751708984375
773	0.51513671875	25.6227429353088	0.00011785888671875	0.51507568359375
774	0.5126953125	25.6471429352472	0.00011712646484375	0.512603759765625
775	0.51025390625	25.6715429351856	0.0001156005859375	0.510223388671875
776	0.5078125	25.695942935124	0.00011395263671875	0.5076904296875
777	0.50537109375	25.7203429350624	0.000113616943359375	0.505340576171875
778	0.5029296875	25.7447429350008	0.0001119384765625	0.502899169921875
779	0.50048828125	25.7691429349392	0.000111572265625	0.500396728515625
780	0.498046875	25.7935429348776	0.00011016845703125	0.49798583984375
781	0.49560546875	25.817942934816	0.000109527587890625	0.49554443359375
782	0.4931640625	25.8423429347544	0.00010809326171875	0.493133544921875
783	0.49072265625	25.8667429346928	0.00010772705078125	0.49066162109375
784	0.48828125	25.8911429346311	0.000107696533203125	0.48822021484375
785	0.48583984375	25.9155429345695	0.000106231689453125	0.485748291015625
786	0.4833984375	25.9399429345079	0.00010498046875	0.4832763671875
787	0.48095703125	25.9643429344463	0.000104339599609375	0.480926513671875
788	0.478515625	25.9887429343847	0.000103363037109375	0.47845458984375
789	0.47607421875	26.0131429343231	0.000102630615234375	0.47601318359375
790	0.4736328125	26.0375429342615	0.000100799560546875	0.47357177734375
791	0.47119140625	26.0619429341999	0.0001007080078125	0.47113037109375
792	0.46875	26.0863429341383	9.9212646484375E-05	0.46875
793	0.46630859375	26.1107429340767	9.918212890625E-05	0.466278076171875
794	0.4638671875	26.1351429340151	9.814453125E-05	0.463775634765625
795	0.46142578125	26.1595429339535	9.6771240234375E-05	0.461395263671875
796	0.458984375	26.1839429338919	9.6221923828125E-05	0.458953857421875
797	0.45654296875	26.2083429338303	9.5428466796875E-05	0.456268310546875
798	0.4541015625	26.2327429337687	9.442138671875E-05	0.453948974609375
799	0.45166015625	26.2571429337071	9.3597412109375E-05	0.451446533203125
800	0.44921875	26.2815429336455	9.3414306640625E-05	0.449005126953125
801	0.44677734375	26.3059429335839	9.1552734375E-05	0.446685791015625
802	0.4443359375	26.3303429335223	9.130859375E-05	0.44415283203125
803	0.44189453125	26.3547429334607	9.0423583984375E-05	0.4417724609375
804	0.439453125	26.3791429333991	8.8958740234375E-05	0.4393310546875
805	0.43701171875	26.4035429333375	8.7799072265625E-05	0.436859130859375
806	0.4345703125	26.4279429332759	8.6761474609375E-05	0.4344482421875
807	0.43212890625	26.4523429332143	8.7005615234375E-05	0.4320068359375
808	0.4296875	26.4767429331527	8.5723876953125E-05	0.42950439453125
809	0.42724609375	26.501142933091	8.514404296875E-05	0.4271240234375
810	0.4248046875	26.5255429330294	8.4228515625E-05	0.42462158203125
811	0.42236328125	26.5499429329678	8.3404541015625E-05	0.422210693359375
812	0.419921875	26.5743429329062	8.28857421875E-05	0.419769287109375
813	0.41748046875	26.5987429328446	8.1787109375E-05	0.41729736328125
814	0.4150390625	26.623142932783	8.154296875E-05	0.414886474609375
815	0.41259765625	26.6475429327214	8.0413818359375E-05	0.4124755859375
816	0.41015625	26.6719429326598	8.0169677734375E-05	0.4100341796875
817	0.40771484375	26.6963429325982	7.9193115234375E-05	0.4075927734375
818	0.4052734375	26.7207429325366	7.8338623046875E-05	0.40509033203125
819	0.40283203125	26.745142932475	7.7606201171875E-05	0.40264892578125
820	0.400390625	26.7695429324134	7.7301025390625E-05	0.400238037109375
821	0.39794921875	26.7939429323518	7.6904296875E-05	0.39776611328125
822	0.3955078125	26.8183429322902	7.5439453125E-05	0.3953857421875
823	0.39306640625	26.8427429322286	7.452392578125E-05	0.3929443359375
824	0.390625	26.867142932167	7.3638916015625E-05	0.390472412109375
825	0.38818359375	26.8915429321054	7.318115234375E-05	0.388031005859375
826	0.3857421875	26.9159429320438	7.244873046875E-05	0.385589599609375
827	0.38330078125	26.9403429319822	7.1319580078125E-05	0.383209228515625
828	0.380859375	26.9647429319206	7.12890625E-05	0.3807373046875
829	0.37841796875	26.989142931859	7.0220947265625E-05	0.37835693359375
830	0.3759765625	27.0135429317974	6.9854736328125E-05	0.375885009765625
831	0.37353515625	27.0379429317358	6.8511962890625E-05	0.37335205078125
832	0.37109375	27.0623429316742	6.8115234375E-05	0.3709716796875
833	0.36865234375	27.0867429316125	6.7535400390625E-05	0.3685302734375
834	0.3662109375	27.1111429315509	6.646728515625E-05	0.366058349609375
835	0.36376953125	27.1355429314893	6.60400390625E-05	0.3636474609375
836	0.361328125	27.1599429314277	6.500244140625E-05	0.3612060546875
837	0.35888671875	27.1843429313661	6.488037109375E-05	0.3587646484375
838	0.3564453125	27.2087429313045	6.3629150390625E-05	0.3563232421875
839	0.35400390625	27.2331429312429	6.3629150390625E-05	0.353912353515625
840	0.3515625	27.2575429311813	6.2652587890625E-05	0.351470947265625
841	0.34912109375	27.2819429311197	6.18896484375E-05	0.349029541015625
842	0.3466796875	27.3063429310581	6.1187744140625E-05	0.34661865234375
843	0.34423828125	27.3307429309965	6.0272216796875E-05	0.3441162109375
844	0.341796875	27.3551429309349	6.0150146484375E-05	0.341766357421875
845	0.33935546875	27.3795429308733	5.8929443359375E-05	0.3392333984375
846	0.3369140625	27.4039429308117	5.877685546875E-05	0.336822509765625
847	0.33447265625	27.4283429307501	5.76171875E-05	0.3343505859375
848	0.33203125	27.4527429306885	5.731201171875E-05	0.3319091796875
849	0.32958984375	27.4771429306269	5.6549072265625E-05	0.3294677734375
850	0.3271484375	27.5015429305653	5.5511474609375E-05	0.3270263671875
851	0.32470703125	27.5259429305037	5.5206298828125E-05	0.324554443359375
852	0.322265625	27.5503429304421	5.3985595703125E-05	0.322113037109375
853	0.31982421875	27.5747429303805	5.3985595703125E-05	0.319732666015625
854	0.3173828125	27.5991429303189	5.2978515625E-05	0.317291259765625
855	0.31494140625	27.6235429302573	5.2459716796875E-05	0.31475830078125
856	0.3125	27.6479429301957	5.18798828125E-05	0.31243896484375
857	0.31005859375	27.6723429301341	5.126953125E-05	0.30999755859375
858	0.3076171875	27.6967429300724	5.120849609375E-05	0.307586669921875
859	0.30517578125	27.7211429300108	4.96063232421875E-05	0.3050537109375
860	0.302734375	27.7455429299492	4.9530029296875E-05	0.302703857421875
861	0.30029296875	27.7699429298876	4.85504150390625E-05	0.300201416015625
862	0.2978515625	27.794342929826	4.84619140625E-05	0.2977294921875
863	0.29541015625	27.8187429297644	4.7442626953125E-05	0.295318603515625
864	0.29296875	27.8431429297028	4.64752197265625E-05	0.292877197265625
865	0.29052734375	27.8675429296412	4.65179443359375E-05	0.290435791015625
866	0.2880859375	27.8919429295796	4.53094482421875E-05	0.28802490234375
867	0.28564453125	27.916342929518	4.53399658203125E-05	0.28558349609375
868	0.283203125	27.9407429294564	4.40826416015625E-05	0.28314208984375
869	0.28076171875	27.9651429293948	4.388427734375E-05	0.28070068359375
870	0.2783203125	27.9895429293332	4.28924560546875E-05	0.278228759765625
871	0.27587890625	28.0139429292716	4.2303466796875E-05	0.275787353515625
872	0.2734375	28.03834292921	4.189453125E-05	0.273345947265625
873	0.27099609375	28.0627429291484	4.063720703125E-05	0.270904541015625
874	0.2685546875	28.0871429290868	4.0447998046875E-05	0.268463134765625
875	0.26611328125	28.1115429290252	3.9459228515625E-05	0.266021728515625
876	0.263671875	28.1359429289636	3.9276123046875E-05	0.26361083984375
877	0.26123046875	28.160342928902	3.8323974609375E-05	0.26123046875
878	0.2587890625	28.1847429288404	3.77349853515625E-05	0.258697509765625
879	0.25634765625	28.2091429287788	3.72222900390625E-05	0.25628662109375
880	0.25390625	28.2335429287172	3.61785888671875E-05	0.253814697265625
881	0.25146484375	28.2579429286556	3.6126708984375E-05	0.251434326171875
882	0.2490234375	28.2823429285939	3.49853515625E-05	0.248931884765625
883	0.24658203125	28.3067429285323	3.4783935546875E-05	0.246551513671875
884	0.244140625	28.3311429284707	3.38165283203125E-05	0.244049072265625
885	0.24169921875	28.3555429284091	3.32427978515625E-05	0.24169921875
886	0.2392578125	28.3799429283475	3.24798583984375E-05	0.239227294921875
887	0.23681640625	28.4043429282859	3.14910888671875E-05	0.236724853515625
888	0.234375	28.4287429282243	3.14483642578125E-05	0.23431396484375
889	0.23193359375	28.4531429281627	3.045654296875E-05	0.231903076171875
890	0.2294921875	28.4775429281011	3.0535888671875E-05	0.2293701171875
891	0.22705078125	28.5019429280395	2.93548583984375E-05	0.22698974609375
892	0.224609375	28.5263429279779	2.8924560546875E-05	0.224609375
893	0.22216796875	28.5507429279163	2.79388427734375E-05	0.222137451171875
894	0.2197265625	28.5751429278547	2.72003173828125E-05	0.219696044921875
895	0.21728515625	28.5995429277931	2.69989013671875E-05	0.21722412109375
896	0.21484375	28.6239429277315	2.57659912109375E-05	0.214752197265625
897	0.21240234375	28.6483429276699	2.56500244140625E-05	0.212371826171875
898	0.2099609375	28.6727429276083	2.4615478515625E-05	0.20989990234375
899	0.20751953125	28.6971429275467	2.44873046875E-05	0.20745849609375
900	0.205078125	28.7215429274851	2.35443115234375E-05	0.205078125
901	0.20263671875	28.7459429274235	2.30194091796875E-05	0.202606201171875
902	0.2001953125	28.7703429273619	2.254638671875E-05	0.200225830078125
903	0.19775390625	28.7947429273003	2.1502685546875E-05	0.197723388671875
904	0.1953125	28.8191429272387	2.13165283203125E-05	0.1953125
905	0.19287109375	28.8435429271771	2.000732421875E-05	0.19287109375
906	0.1904296875	28.8679429271155	2.0196533203125E-05	0.190460205078125
907	0.18798828125	28.8923429270538	1.87835693359375E-05	0.18798828125
908	0.185546875	28.9167429269922	1.8353271484375E-05	0.185577392578125
909	0.18310546875	28.9411429269306	1.77215576171875E-05	0.183074951171875
910	0.1806640625	28.965542926869	1.66412353515625E-05	0.1806640625
911	0.17822265625	28.9899429268074	1.66595458984375E-05	0.178253173828125
912	0.17578125	29.0143429267458	1.54205322265625E-05	0.175811767578125
913	0.17333984375	29.0387429266842	1.5667724609375E-05	0.173370361328125
914	0.1708984375	29.0631429266226	1.44927978515625E-05	0.170928955078125
915	0.16845703125	29.087542926561	1.40899658203125E-05	0.16845703125
916	0.166015625	29.1119429264994	1.34918212890625E-05	0.166015625
917	0.16357421875	29.1363429264378	1.268310546875E-05	0.163604736328125
918	0.1611328125	29.1607429263762	1.24298095703125E-05	0.16119384765625
919	0.15869140625	29.1851429263146	1.10443115234375E-05	0.15869140625
920	0.15625	29.209542926253	1.0919189453125E-05	0.15625
921	0.15380859375	29.2339429261914	9.759521484375E-06	0.15386962890625
922	0.1513671875	29.2583429261298	9.5458984375E-06	0.151397705078125
923	0.14892578125	29.2827429260682	8.8897705078125E-06	0.14892578125
924	0.146484375	29.3071429260066	8.111572265625E-06	0.146514892578125
925	0.14404296875	29.331542925945	7.8033447265625E-06	0.144073486328125
926	0.1416015625	29.3559429258834	6.732177734375E-06	0.141510009765625
927	0.13916015625	29.3803429258218	6.77490234375E-06	0.13909912109375
928	0.13671875	29.4047429257602	5.4168701171875E-06	0.136627197265625
929	0.13427734375	29.4291429256986	5.328369140625E-06	0.134246826171875
930	0.1318359375	29.453542925637	4.47998046875E-06	0.131744384765625
931	0.12939453125	29.4779429255753	3.956298828125E-06	0.12939453125
932	0.126953125	29.5023429255137	3.5040283203125E-06	0.126922607421875
933	0.12451171875	29.5267429254521	2.48443603515625E-06	0.12451171875
934	0.1220703125	29.5511429253905	2.40966796875E-06	0.122100830078125
935	0.11962890625	29.5755429253289	1.2115478515625E-06	0.11968994140625
936	0.1171875	29.5999429252673	1.28021240234375E-06	0.117218017578125
937	0.11474609375	29.6243429252057	2.288818359375E-07	0.11474609375
938	0.1123046875	29.6487429251441	-3.1524658203125E-07	0.11236572265625
939	0.10986328125	29.6731429250825	-8.0413818359375E-07	0.10992431640625
940	0.107421875	29.6975429250209	-1.5887451171875E-06	0.10748291015625
941	0.10498046875	29.7219429249593	-1.6546630859375E-06	0.1051025390625
942	0.1025390625	29.7463429248977	-2.935791015625E-06	0.1026611328125
943	0.10009765625	29.7707429248361	-2.93487548828125E-06	0.100250244140625
944	0.09765625	29.7951429247745	-3.90716552734375E-06	0.0977783203125
945	0.09521484375	29.8195429247129	-4.25750732421875E-06	0.095367431640625
946	0.0927734375	29.8439429246513	-5.0201416015625E-06	0.092926025390625
947	0.09033203125	29.8683429245897	-5.8990478515625E-06	0.09039306640625
948	0.087890625	29.8927429245281	-5.9295654296875E-06	0.0880126953125
949	0.08544921875	29.9171429244665	-6.99462890625E-06	0.0855712890625
950	0.0830078125	29.9415429244049	-6.8695068359375E-06	0.083099365234375
951	0.08056640625	29.9659429243433	-8.0657958984375E-06	0.080657958984375
952	0.078125	29.9903429242817	-8.2977294921875E-06	0.0782470703125
953	0.07568359375	30.0147429242201	-9.06982421875E-06	0.075836181640625
954	0.0732421875	30.0391429241585	-9.716796875E-06	0.07342529296875
955	0.07080078125	30.0635429240969	-1.00341796875E-05	0.07098388671875
956	0.068359375	30.0879429240352	-1.1175537109375E-05	0.068572998046875
957	0.06591796875	30.1123429239736	-1.11053466796875E-05	0.066162109375
958	0.0634765625	30.136742923912	-1.22650146484375E-05	0.063690185546875
959	0.06103515625	30.1611429238504	-1.22589111328125E-05	0.06121826171875
960	0.05859375	30.1855429237888	-1.31988525390625E-05	0.058807373046875
961	0.05615234375	30.2099429237272	-1.37115478515625E-05	0.056396484375
962	0.0537109375	30.2343429236656	-1.409912109375E-05	0.053924560546875
963	0.05126953125	30.258742923604	-1.50115966796875E-05	0.05157470703125
964	0.048828125	30.2831429235424	-1.5020751953125E-05	0.0490020751953125
965	0.04638671875	30.3075429234808	-1.62445068359375E-05	0.0465667724609375
966	0.0439453125	30.3319429234192	-1.6217041015625E-05	0.0441162109375
967	0.04150390625	30.3563429233576	-1.7108154296875E-05	0.0416717529296875
968	0.0390625	30.380742923296	-1.7547607421875E-05	0.0392303466796875
969	0.03662109375	30.4051429232344	-1.8084716796875E-05	0.03680419921875
970	0.0341796875	30.4295429231728	-1.89178466796875E-05	0.03433837890625
971	0.03173828125	30.4539429231112	-1.8988037109375E-05	0.031903076171875
972	0.029296875	30.4783429230496	-2.0068359375E-05	0.0294769287109375
973	0.02685546875	30.502742922988	-1.99432373046875E-05	0.0270477294921875
974	0.0244140625	30.5271429229264	-2.10418701171875E-05	0.0245941162109375
975	0.02197265625	30.5515429228648	-2.13531494140625E-05	0.0221527099609375
976	0.01953125	30.5759429228032	-2.200927734375E-05	0.01968994140625
977	0.01708984375	30.6003429227416	-2.27020263671875E-05	0.0172821044921875
978	0.0146484375	30.62474292268	-2.29339599609375E-05	0.0148406982421875
979	0.01220703125	30.6491429226184	-2.40936279296875E-05	0.012396240234375
980	0.009765625	30.6735429225567	-2.40234375E-05	0.00995788574218751
981	0.00732421875	30.6979429224951	-2.50946044921875E-05	0.0075225830078125
982	0.0048828125	30.7223429224335	-2.52166748046875E-05	0.005078125
983	0.00244140625	30.7467429223719	-2.601318359375E-05	0.0026397705078125
984	0	30.7711429223103	-2.66632080078125E-05	0.000195312500000003
985	0.00244140625	30.7955429222487	-2.58087158203125E-05	0.00263671875
986	0.0048828125	30.8199429221871	-2.564697265625E-05	0.00508728027343749
