Index	Time (s)	WE(1).Potential (V)	Corrected time (s)	dWE(1).Potential/dt (V/s)	OCP value (V)
1	31.8638619195515	0.10662841796875	0	0	0.120917226753983
2	31.963861919299	0.107147216796875	0.0999999997475243	0.00518796872347593	
3	32.0638619190465	0.1070556640625	0.199999999495049	-0.00396727025508881	
4	32.1638619187941	0.107391357421875	0.299999999242573	0.00895178876817226	
5	32.2638619185416	0.10760498046875	0.399999998990097	-0.000305174617096782	
6	32.3638619182891	0.107666015625	0.499999998737621	-0.000254312180913985	
7	32.4638619180366	0.10772705078125	0.599999998485146	0.00111897359602153	
8	32.5638619177842	0.108154296875	0.69999999823267	0.00732419081032276	
9	32.6638619175317	0.108306884765625	0.799999997980194	-0.0019836351275444	
10	32.7638619172792	0.108001708984375	0.899999997727718	-0.00595090491697192	
11	32.8638619170267	0.1080322265625	0.999999997475243	0.00462848180904984	
12	32.9638619167742	0.10809326171875	1.09999999722277	-0.000254312180913985	
13	33.0638619165218	0.10845947265625	1.19999999697029	0.00610349234193563	
14	33.1638619162693	0.109619140625	1.29999999671782	0.0171915031969547	
15	33.2638619160168	0.109893798828125	1.39999999646534	-0.00727332849055529	
16	33.3638619157643	0.109375	1.49999999621286	-0.00885006412863731	
17	33.4638619155119	0.10968017578125	1.59999999596039	0.0125630218535662	
18	33.5638619152594	0.108856201171875	1.69999999570791	-0.0203958377242088	
19	33.6638619150069	0.109222412109375	1.79999999545544	0.0173440910875797	
20	33.7638619147544	0.109375	1.89999999520296	-0.00422158231958747	
21	33.863861914502	0.109649658203125	1.99999999495049	0.00447589438408613	
22	33.9638619142495	0.109466552734375	2.09999999469801	-0.00605263002216816	
23	34.063861913997	0.10931396484375	2.19999999444553	0.000254312180913985	
24	34.1638619137445	0.10931396484375	2.29999999419306	0.00116983603220433	
25	34.2638619134921	0.10992431640625	2.39999999394058	0.0106811113655567	
26	34.3638619132396	0.109832763671875	2.49999999368811	-0.00879920180886984	
27	34.4638619129871	0.110137939453125	2.59999999343563	0.00869747623801231	
28	34.5638619127346	0.109893798828125	2.69999999318316	-0.00834143999963999	
29	34.6638619124822	0.110198974609375	2.79999999293068	0.00946041289716959	
30	34.7638619122297	0.1102294921875	2.8999999926782	-0.00381468283012509	
31	34.8638619119772	0.11041259765625	2.99999999242573	0.00401813257485628	
32	34.9638619117247	0.110931396484375	3.09999999217325	0.00747677823528647	
33	35.0638619114723	0.110015869140625	3.19999999192078	-0.0222268849611282	
34	35.1638619112198	0.110382080078125	3.2999999916683	0.0191242769360542	
35	35.2638619109673	0.110198974609375	3.39999999141583	-0.0106811113655567	
36	35.3638619107148	0.1102294921875	3.49999999116335	0.00391640746966004	
37	35.4638619104624	0.110595703125	3.59999999091087	0.00574745517224073	
38	35.5638619102099	0.110931396484375	3.6999999906584	0.0019836351275444	
39	35.6638619099574	0.11090087890625	3.79999999040592	-0.00325519591569901	
40	35.7638619097049	0.111541748046875	3.89999999015345	0.0132242338731885	
41	35.8638619094525	0.111572265625	3.99999998990097	-0.00701901642605662	
42	35.9638619092	0.112213134765625	4.0999999896485	0.0135294077917933	
43	36.0638619089475	0.112213134765625	4.19999998939602	-0.00737505313009024	
44	36.163861908695	0.112152099609375	4.29999998914354	0.00101724872365594	
45	36.2638619084425	0.1124267578125	4.39999998889107	0.00574745517224073	
46	36.3638619081901	0.112518310546875	4.49999998863859	-0.0017293228302151	
47	36.4638619079376	0.112396240234375	4.59999998838612	-0.00239053461700678	
48	36.5638619076851	0.112884521484375	4.69999998813364	0.0106811113655567	
49	36.6638619074326	0.11273193359375	4.79999998788116	-0.00890092644840479	
50	36.7638619071802	0.112945556640625	4.89999998762869	0.00732419081032276	
51	36.8638619069277	0.11297607421875	4.99999998737621	-0.00244139693677425	
52	36.9638619066752	0.11309814453125	5.09999998712374	0.00259398436173797	
53	37.0638619064227	0.113494873046875	5.19999998687126	0.00595090491697192	
54	37.1638619061703	0.113616943359375	5.29999998661879	-0.0019836351275444	
55	37.2638619059178	0.11358642578125	5.39999998636631	-0.00066121167037636	
56	37.3638619056653	0.11322021484375	5.49999998611383	-0.00595090491697192	
57	37.4638619054128	0.1134033203125	5.59999998586136	0.00752764055505395	
58	37.5638619051604	0.11328125	5.69999998560888	-0.00559486821293831	
59	37.6638619049079	0.11260986328125	5.79999998535641	-0.0102742118760943	
60	37.7638619046554	0.113006591796875	5.89999998510393	0.014699243940413	
61	37.8638619044029	0.11273193359375	5.99999998485146	-0.0119018098339438	
62	37.9638619041505	0.11297607421875	6.09999998459898	0.00900265108793974	
63	38.063861903898	0.113128662109375	6.1999999843465	-0.000966386287473142	
64	38.1638619036455	0.113067626953125	6.29999998409403	-0.00208535999991	
65	38.263861903393	0.113128662109375	6.39999998384155	0.00233967206440866	
66	38.3638619031406	0.11322021484375	6.49999998358908	0.000762936542741954	
67	38.4638619028881	0.113006591796875	6.5999999833366	-0.00478106923401356	
68	38.5638619026356	0.11260986328125	6.69999998308413	-0.00447589438408613	
69	38.6638619023831	0.112091064453125	6.79999998283165	-0.00559486821293831	
70	38.7638619021307	0.11236572265625	6.89999998257917	0.00976558774709702	
71	38.8638619018782	0.11212158203125	6.9999999823267	-0.00940955057740211	
72	38.9638619016257	0.112274169921875	7.09999998207422	0.00656125415116549	
73	39.0638619013732	0.112274169921875	7.19999998182175	-0.00259398436173797	
74	39.1638619011208	0.112396240234375	7.29999998156927	0.00274657155387104	
75	39.2638619008683	0.11236572265625	7.3999999813168	-0.0019836351275444	
76	39.3638619006158	0.112030029296875	7.49999998106432	-0.00539141846820712	
77	39.4638619003633	0.112335205078125	7.59999998081184	0.00940955057740211	
78	39.5638619001109	0.111846923828125	7.69999998055937	-0.0136311333626509	
79	39.6638618998584	0.111907958984375	7.79999998030689	0.00783281493932009	
80	39.7638618996059	0.111724853515625	7.89999998005442	-0.00569659285247326	
81	39.8638618993534	0.1123046875	7.99999997980194	0.0129699213430285	
82	39.9638618991009	0.1123046875	8.09999997954947	-0.00737505313009024	
83	40.0638618988485	0.11224365234375	8.19999997929699	0.000813798978924751	
84	40.163861898596	0.111785888671875	8.29999997904451	-0.00768022798001766	
85	40.2638618983435	0.111846923828125	8.39999997879204	0.00625607976689935	
86	40.363861898091	0.112457275390625	8.49999997853956	0.00895178876817226	
87	40.4638618978386	0.1124267578125	8.59999997828709	-0.00747677823528647	
88	40.5638618975861	0.112396240234375	8.69999997803461	0.00183104770258069	
89	40.6638618973336	0.112945556640625	8.79999997778214	0.0103250741958618	
90	40.7638618970811	0.113433837890625	8.89999997752966	0.00244139693677425	
91	40.8638618968287	0.11334228515625	8.99999997727718	-0.00554400542750955	
92	40.9638618965762	0.11358642578125	9.09999997702471	0.00717160338535905	
93	41.0638618963237	0.112762451171875	9.19999997677223	-0.0182596147060394	
94	41.1638618960712	0.11297607421875	9.29999997651976	0.0143432067707181	
95	41.2638618958188	0.113037109375	9.39999997626728	-0.00411985721439123	
96	41.3638618955663	0.113250732421875	9.49999997601481	0.00391640746966004	
97	41.4638618953138	0.113128662109375	9.59999997576233	-0.00452675670385361	
98	41.5638618950613	0.113067626953125	9.69999997550985	0.00101724872365594	
99	41.6638618948089	0.1129150390625	9.79999997525738	-0.00249225948937237	
100	41.7638618945564	0.11297607421875	9.8999999750049	0.00269570923410356	
101	41.8638618943039	0.11297607421875	9.99999997475243	-0.00122069846838713	
102	41.9638618940514	0.113037109375	10.0999999745	0.00132242334075272	
103	42.063861893799	0.113128662109375	10.1999999742475	0.000966386287473142	
104	42.1638618935465	0.113677978515625	10.299999973995	0.00920610129833221	
105	42.263861893294	0.11383056640625	10.3999999737425	-0.00330605846829712	
106	42.3638618930415	0.113739013671875	10.49999997349	-0.0016275979578495	
107	42.4638618927891	0.11358642578125	10.5999999732376	-0.00122069846838713	
108	42.5638618925366	0.11358642578125	10.6999999729851	0.00147501064930111	
109	42.6638618922841	0.113372802734375	10.7999999727326	-0.00442503206431866	
110	42.7638618920316	0.113739013671875	10.8999999724801	0.00920610129833221	
111	42.8638618917792	0.11376953125	10.9999999722277	-0.00442503206431866	
112	42.9638618915267	0.114044189453125	11.0999999719752	0.00590004259720445	
113	43.0638618912742	0.114349365234375	11.1999999717227	0.00249225948937237	
114	43.1638618910217	0.11492919921875	11.2999999714702	0.00798540282994509	
115	43.2638618907692	0.11474609375	11.3999999712178	-0.00910437572747469	
116	43.3638618905168	0.11492919921875	11.4999999709653	0.007425915915519	
117	43.4638618902643	0.11572265625	11.5999999707128	0.0118000851944089	
118	43.5638618900118	0.115447998046875	11.6999999704603	-0.0136819956824183	
119	43.6638618897593	0.1156005859375	11.7999999702079	0.00864661391824484	
120	43.7638618895069	0.11614990234375	11.8999999699554	0.00737505313009024	
121	43.8638618892544	0.115814208984375	11.9999999697029	-0.0120543977245688	
122	43.9638618890019	0.1158447265625	12.0999999694504	0.00630694208666682	
123	44.0638618887494	0.11517333984375	12.199999969198	-0.0137837203219533	
124	44.163861888497	0.115509033203125	12.2999999689455	0.0140888951718807	
125	44.2638618882445	0.1156005859375	12.399999968693	-0.00447589438408613	
126	44.363861887992	0.115753173828125	12.4999999684405	0.00284829642623663	
127	44.4638618877395	0.11614990234375	12.5999999681881	0.0057983179576695	
128	44.5638618874871	0.115997314453125	12.6999999679356	-0.00691729132086039	
129	44.6638618872346	0.11553955078125	12.7999999676831	-0.00528969336301088	
130	44.7638618869821	0.11572265625	12.8999999674306	0.00818885210901499	
131	44.8638618867296	0.1156005859375	12.9999999671782	-0.00590004259720445	
132	44.9638618864772	0.11614990234375	13.0999999669257	0.0121052600443363	
133	45.0638618862247	0.11627197265625	13.1999999666732	-0.00457761948928237	
134	45.1638618859722	0.116790771484375	13.2999999664207	0.00991817470639944	
135	45.2638618857197	0.1162109375	13.3999999661683	-0.016275979578495	
136	45.3638618854673	0.116485595703125	13.4999999659158	0.0135294077917933	
137	45.4638618852148	0.11663818359375	13.5999999656633	-0.00233967206440866	
138	45.5638618849623	0.11669921875	13.6999999654108	0.000254312180913985	
139	45.6638618847098	0.11669921875	13.7999999651583	-0.000203449744731188	
140	45.7638618844574	0.116455078125	13.8999999649059	-0.00427244463935494	
141	45.8638618842049	0.1168212890625	13.9999999646534	0.00956213846802711	
142	45.9638618839524	0.117034912109375	14.0999999644009	-0.00116983603220433	
143	46.0638618836999	0.1171875	14.1999999641484	0.00152587308548391	
144	46.1638618834475	0.117462158203125	14.299999963896	0.00396727025508881	
145	46.263861883195	0.11688232421875	14.3999999636435	-0.0133259585127234	
146	46.3638618829425	0.11700439453125	14.499999963391	0.00991817470639944	
147	46.46386188269	0.117156982421875	14.5999999631385	-0.000559486798010767	
148	46.5638618824375	0.11669921875	14.6999999628861	-0.00976558774709702	
149	46.6638618821851	0.116729736328125	14.7999999626336	0.00640866719186306	
150	46.7638618819326	0.117095947265625	14.8999999623811	0.00483193155378103	
151	46.8638618816801	0.116668701171875	14.9999999621286	-0.0120035354048014	
152	46.9638618814276	0.116058349609375	15.0999999618762	-0.00498451897874475	
153	47.0638618811752	0.11614990234375	15.1999999616237	0.00737505313009024	
154	47.1638618809227	0.11639404296875	15.2999999613712	0.00137328577693552	
155	47.2638618806702	0.116943359375	15.3999999611187	0.00752764055505395	
156	47.3638618804177	0.11669921875	15.4999999608663	-0.0100707625970244	
157	47.4638618801653	0.11627197265625	15.5999999606138	-0.00315347104333341	
158	47.5638618799128	0.11614990234375	15.6999999603613	0.00193277257494628	
159	47.6638618796603	0.116455078125	15.7999999601088	0.00559486821293831	
160	47.7638618794078	0.116851806640625	15.8999999598564	0.00330605846829712	
161	47.8638618791554	0.11669921875	15.9999999596039	-0.00640866719186306	
162	47.9638618789029	0.1165771484375	16.0999999593514	0.000864661415107548	
163	48.0638618786504	0.117034912109375	16.1999999590989	0.00930782593786716	
164	48.1638618783979	0.116912841796875	16.2999999588465	-0.00798540282994509	
165	48.2638618781455	0.1171875	16.399999958594	0.00798540282994509	
166	48.363861877893	0.11737060546875	16.4999999583415	-0.000254312180913985	
167	48.4638618776405	0.117095947265625	16.599999958089	-0.00625607976689935	
168	48.563861877388	0.1180419921875	16.6999999578366	0.0211587734520435	
169	48.6638618771356	0.1182861328125	16.7999999575841	-0.00747677823528647	
170	48.7638618768831	0.117706298828125	16.8999999573316	-0.0103250741958618	
171	48.8638618766306	0.117919921875	16.9999999570791	0.0114949103444815	
172	48.9638618763781	0.11810302734375	17.0999999568267	-0.00106811115983874	
173	49.0638618761257	0.11822509765625	17.1999999565742	0.000813798978924751	
174	49.1638618758732	0.11895751953125	17.2999999563217	0.0126138841733336	
175	49.2638618756207	0.119232177734375	17.3999999560692	-0.00310260872356594	
176	49.3638618753682	0.1190185546875	17.4999999558167	-0.00467934412881732	
177	49.4638618751158	0.11895751953125	17.5999999555643	0.00228880974464118	
178	49.5638618748633	0.11871337890625	17.6999999553118	-0.00447589438408613	
179	49.6638618746108	0.118865966796875	17.7999999550593	0.0054422807879746	
180	49.7638618743583	0.1190185546875	17.8999999548068	0.000203449744731188	
181	49.8638618741059	0.119049072265625	17.9999999545544	-0.000712074106559157	
182	49.9638618738534	0.119537353515625	18.0999999543019	0.00910437572747469	
183	50.0638618736009	0.119476318359375	18.1999999540494	-0.0067138415761292	
184	50.1638618733484	0.119293212890625	18.2999999537969	-0.00101724872365594	
185	50.2638618730959	0.11871337890625	18.3999999535445	-0.00869747623801231	
186	50.3638618728435	0.11920166015625	18.499999953292	0.0151061434298754	
187	50.463861872591	0.119232177734375	18.5999999530395	-0.0070698787458241	
188	50.5638618723385	0.118621826171875	18.699999952787	-0.00991817470639944	
189	50.663861872086	0.118988037109375	18.7999999525346	0.0139363072812557	
190	50.7638618718336	0.118927001953125	18.8999999522821	-0.007425915915519	
191	50.8638618715811	0.118377685546875	18.9999999520296	-0.00813798978924751	
192	50.9638618713286	0.118621826171875	19.0999999517771	0.0106811113655567	
193	51.0638618710761	0.118499755859375	19.1999999515247	-0.00691729132086039	
194	51.1638618708237	0.11859130859375	19.2999999512722	0.00391640746966004	
195	51.2638618705712	0.11859130859375	19.3999999510197	-0.00147501064930111	
196	51.3638618703187	0.11822509765625	19.4999999507672	-0.00640866719186306	
197	51.4638618700662	0.11785888671875	19.5999999505148	-0.00244139693677425	
198	51.5638618698138	0.11834716796875	19.6999999502623	0.0120035354048014	
199	51.6638618695613	0.118438720703125	19.7999999500098	-0.00523883104324341	
200	51.7638618693088	0.118438720703125	19.8999999497573	0.000559486798010767	
201	51.8638618690563	0.118011474609375	19.9999999495049	-0.00752764055505395	
202	51.9638618688039	0.117523193359375	20.0999999492524	-0.00396727025508881	
203	52.0638618685514	0.118133544921875	20.1999999489999	0.0154621805995703	
204	52.1638618682989	0.117340087890625	20.2999999487474	-0.0232949964702129	
205	52.2638618680464	0.11700439453125	20.399999948495	0.00513710593804717	
206	52.363861867794	0.116912841796875	20.4999999482425	-0.000406899489462376	
207	52.4638618675415	0.11669921875	20.59999994799	-0.00396727025508881	
208	52.563861867289	0.116119384765625	20.6999999477375	-0.00844316463917494	
209	52.6638618670365	0.11578369140625	20.799999947485	-0.000101724872365594	
210	52.7638618667841	0.115234375	20.8999999472326	-0.00808712746948004	
211	52.8638618665316	0.114898681640625	20.9999999469801	-0.000864661415107548	
212	52.9638618662791	0.1153564453125	21.0999999467276	0.0104776620864868	
213	53.0638618660266	0.11553955078125	21.1999999464751	-0.00310260872356594	
214	53.1638618657742	0.11553955078125	21.2999999462227	-0.000610349234193563	
215	53.2638618655217	0.11529541015625	21.3999999459702	-0.00386554514989257	
216	53.3638618652692	0.11578369140625	21.4999999457177	0.0118000851944089	
217	53.4638618650167	0.115142822265625	21.5999999454652	-0.0182596147060394	
218	53.5638618647642	0.1156005859375	21.6999999452128	0.0174966789782047	
219	53.6638618645118	0.11578369140625	21.7999999449603	-0.00411985721439123	
220	53.7638618642593	0.115509033203125	21.8999999447078	-0.00564573053270578	
221	53.8638618640068	0.115997314453125	21.9999999444553	0.0127664711326361	
222	53.9638618637543	0.115478515625	22.0999999442029	-0.01612339168787	
223	54.0638618635019	0.11529541015625	22.1999999439504	0.00432330695912242	
224	54.1638618632494	0.11541748046875	22.2999999436979	0.00264484668150544	
225	54.2638618629969	0.115020751953125	22.3999999434454	-0.00930782593786716	
226	54.3638618627444	0.11480712890625	22.499999943193	0.00111897359602153	
227	54.463861862492	0.114837646484375	22.5999999429405	0.0017293228302151	
228	54.5638618622395	0.11468505859375	22.699999942688	-0.00386554514989257	
229	54.663861861987	0.114471435546875	22.7999999424355	-0.00203449744731188	
230	54.7638618617345	0.11444091796875	22.8999999421831	0.00142414821311831	
231	54.8638618614821	0.114532470703125	22.9999999419306	0.00132242334075272	
232	54.9638618612296	0.114593505859375	23.0999999416781	-5.0862436182797E-05	
233	55.0638618609771	0.1141357421875	23.1999999414256	-0.00879920180886984	
234	55.1638618607246	0.11431884765625	23.2999999411732	0.00890092644840479	
235	55.2638618604722	0.11431884765625	23.3999999409207	-0.00366209540516138	
236	55.3638618602197	0.114715576171875	23.4999999406682	0.00788367725908756	
237	55.4638618599672	0.11517333984375	23.5999999404157	0.00376382027752697	
238	55.5638618597147	0.114898681640625	23.6999999401633	-0.00905351340770721	
239	55.6638618594623	0.115447998046875	23.7999999399108	0.0148009685799479	
240	55.7638618592098	0.11572265625	23.8999999396583	-0.00228880974464118	
241	55.8638618589573	0.115753173828125	23.9999999394058	-0.000813798978924751	
242	55.9638618587048	0.115875244140625	24.0999999391533	0.00279743410646915	
243	56.0638618584524	0.11529541015625	24.1999999389009	-0.0119526721537113	
244	56.1638618581999	0.11517333984375	24.2999999386484	0.00493365619331598	
245	56.2638618579474	0.115631103515625	24.3999999383959	0.00788367725908756	
246	56.3638618576949	0.115966796875	24.4999999381434	0.000406899489462376	
247	56.4638618574425	0.115509033203125	24.599999937891	-0.0107828369364142	
248	56.56386185719	0.115936279296875	24.6999999376385	0.0142923444509506	
249	56.6638618569375	0.116119384765625	24.799999937386	-0.00315347104333341	
250	56.763861856685	0.116180419921875	24.8999999371335	0.000406899489462376	
251	56.8638618564325	0.116607666015625	24.9999999368811	0.00773109029978514	
252	56.9638618561801	0.116729736328125	25.0999999366286	-0.00254312180913985	
253	57.0638618559276	0.1163330078125	25.1999999363761	-0.00727332849055529	
254	57.1638618556751	0.11676025390625	25.2999999361236	0.0128681967034936	
255	57.2638618554226	0.1163330078125	25.3999999358712	-0.0141397574916482	
256	57.3638618551702	0.116058349609375	25.4999999356187	0.00137328577693552	
257	57.4638618549177	0.11663818359375	25.5999999353662	0.0124104348942637	
258	57.5638618546652	0.11663818359375	25.6999999351137	-0.00768022798001766	
259	57.6638618544127	0.116607666015625	25.7999999348613	0.00137328577693552	
260	57.7638618541603	0.1168212890625	25.8999999346088	0.00427244463935494	
261	57.8638618539078	0.116546630859375	25.9999999343563	-0.00762936566025019	
262	57.9638618536553	0.116546630859375	26.0999999341038	0.00391640746966004	
263	58.0638618534028	0.11651611328125	26.1999999338514	-0.00147501064930111	
264	58.1638618531504	0.116851806640625	26.2999999335989	0.00651039183139801	
265	58.2638618528979	0.117095947265625	26.3999999333464	0.000457761925645173	
266	58.3638618526454	0.11700439453125	26.4999999330939	-0.00340778334066272	
267	58.4638618523929	0.116943359375	26.5999999328415	0.000762936542741954	
268	58.5638618521405	0.116943359375	26.699999932589	0.000406899489462376	
269	58.663861851888	0.116790771484375	26.7999999323365	-0.00300088385120034	
270	58.7638618516355	0.116790771484375	26.899999932084	0.00178018526639789	
271	58.863861851383	0.116302490234375	26.9999999318316	-0.00946041289716959	
272	58.9638618511306	0.116455078125	27.0999999315791	0.00849402695894241	
273	59.0638618508781	0.11602783203125	27.1999999313266	-0.0112405987456441	
274	59.1638618506256	0.11590576171875	27.2999999310741	0.00325519591569901	
275	59.2638618503731	0.11578369140625	27.3999999308217	-0.00223794719204307	
276	59.3638618501207	0.1160888671875	27.4999999305692	0.00661211693659425	
277	59.4638618498682	0.116119384765625	27.5999999303167	-0.00340778334066272	
278	59.5638618496157	0.116424560546875	27.6999999300642	0.00625607976689935	
279	59.6638618493632	0.116485595703125	27.7999999298117	-0.00233967206440866	
280	59.7638618491108	0.115814208984375	27.8999999295593	-0.0120035354048014	
281	59.8638618488583	0.115478515625	27.9999999293068	0.00188191013876349	
282	59.9638618486058	0.115692138671875	28.0999999290543	0.00559486821293831	
283	60.0638618483533	0.11505126953125	28.1999999288018	-0.0153604559600353	
284	60.1638618481009	0.11505126953125	28.2999999285494	0.00818885210901499	
285	60.2638618478484	0.11492919921875	28.3999999282969	-0.00437416974455118	
286	60.3638618475959	0.1148681640625	28.4999999280444	0.000305174617096782	
287	60.4638618473434	0.1153564453125	28.5999999277919	0.00925696361809969	
288	60.5638618470909	0.11480712890625	28.6999999275395	-0.0159708056598902	
289	60.6638618468385	0.1151123046875	28.799999927287	0.0136311333626509	
290	60.763861846586	0.114837646484375	28.8999999270345	-0.0104267997667193	
291	60.8638618463335	0.114593505859375	28.999999926782	-0.000254312180913985	
292	60.963861846081	0.114959716796875	29.0999999265296	0.00864661391824484	
293	61.0638618458286	0.11468505859375	29.1999999262771	-0.0101216249167919	
294	61.1638618455761	0.11474609375	29.2999999260246	0.00554400542750955	
295	61.2638618453236	0.1146240234375	29.3999999257721	-0.00386554514989257	
296	61.3638618450711	0.114105224609375	29.4999999255197	-0.00788367725908756	
297	61.4638618448187	0.113922119140625	29.5999999252672	0.00228880974464118	
298	61.5638618445662	0.1142578125	29.6999999250147	0.00656125415116549	
299	61.6638618443137	0.113739013671875	29.7999999247622	-0.0140380328521132	
300	61.7638618440612	0.1138916015625	29.8999999245098	0.00996903795748949	
301	61.8638618438088	0.11346435546875	29.9999999242573	-0.011342323385179	
302	61.9638618435563	0.113983154296875	30.0999999240048	0.0150044187903404	
303	62.0638618433038	0.114349365234375	30.1999999237523	-0.000762936542741954	
304	62.1638618430513	0.11444091796875	30.2999999234999	-0.000864661415107548	
305	62.2638618427989	0.1141357421875	30.3999999232474	-0.0054422807879746	
306	62.3638618425464	0.1136474609375	30.4999999229949	-0.0050862436182797	
307	62.4638618422939	0.11358642578125	30.5999999227424	0.00356037053279579	
308	62.5638618420414	0.113677978515625	30.69999992249	0.000762936542741954	
309	62.663861841789	0.113983154296875	30.7999999222375	0.00432330695912242	
310	62.7638618415365	0.11419677734375	30.899999921985	0.00066121167037636	
311	62.863861841284	0.1141357421875	30.9999999217325	-0.00259398436173797	
312	62.9638618410315	0.11419677734375	31.09999992148	0.00254312180913985	
313	63.0638618407791	0.1141357421875	31.1999999212276	-0.00203449744731188	
314	63.1638618405266	0.114532470703125	31.2999999209751	0.00818885210901499	
315	63.2638618402741	0.1153564453125	31.3999999207226	0.0102742118760943	
316	63.3638618400216	0.114990234375	31.4999999204701	-0.0150044187903404	
317	63.4638618397692	0.115020751953125	31.5999999202177	0.00757850287482142	
318	63.5638618395167	0.11480712890625	31.6999999199652	-0.00549314310774207	
319	63.6638618392642	0.11395263671875	31.7999999197127	-0.0130716459825635	
320	63.7638618390117	0.11370849609375	31.8999999194602	0.00478106923401356	
321	63.8638618387592	0.114532470703125	31.9999999192078	0.0151061434298754	
322	63.9638618385068	0.114898681640625	32.0999999189553	-0.0037129579577595	
323	64.0638618382543	0.114837646484375	32.1999999187028	-0.00264484668150544	
324	64.1638618380018	0.11517333984375	32.2999999184503	0.00808712746948004	
325	64.2638618377493	0.115386962890625	32.3999999181979	-0.000203449744731188	
326	64.3638618374969	0.115386962890625	32.4999999179454	-0.00137328577693552	
327	64.4638618372444	0.115631103515625	32.5999999176929	0.00518796872347593	
328	64.5638618369919	0.1151123046875	32.6999999174404	-0.0123595716431737	
329	64.6638618367394	0.11566162109375	32.799999917188	0.0169371906667948	
330	64.763861836487	0.115325927734375	32.8999999169355	-0.0142923444509506	
331	64.8638618362345	0.115753173828125	32.999999916683	0.0135802701115608	
332	64.963861835982	0.115997314453125	33.0999999164305	-0.0016275979578495	
333	65.0638618357295	0.115814208984375	33.1999999161781	-0.00478106923401356	
334	65.1638618354771	0.1162109375	33.2999999159256	0.0102233495563269	
335	65.2638618352246	0.11590576171875	33.3999999156731	-0.0108336992561817	
336	65.3638618349721	0.11578369140625	33.4999999154206	0.00264484668150544	
337	65.4638618347196	0.115692138671875	33.5999999151682	-0.00127156090456992	
338	65.5638618344672	0.115447998046875	33.6999999149157	-0.00381468283012509	
339	65.6638618342147	0.115570068359375	33.7999999146632	0.00478106923401356	
340	65.7638618339622	0.1148681640625	33.8999999144107	-0.0151061434298754	
341	65.8638618337097	0.11541748046875	33.9999999141583	0.0186665132641792	
342	65.9638618334573	0.114990234375	34.0999999139058	-0.0165811534970999	
343	66.0638618332048	0.115264892578125	34.1999999136533	0.0118509475141764	
344	66.1638618329523	0.115081787109375	34.2999999134008	-0.00798540282994509	
345	66.2638618326998	0.115325927734375	34.3999999131483	0.00752764055505395	
346	66.3638618324474	0.115570068359375	34.4999999128959	0.00101724872365594	
347	66.4638618321949	0.115234375	34.5999999126434	-0.00818885210901499	
348	66.5638618319424	0.11541748046875	34.6999999123909	0.00808712746948004	
349	66.6638618316899	0.115142822265625	34.7999999121384	-0.00829057674854994	
350	66.7638618314375	0.115570068359375	34.899999911886	0.0116474982351065	
351	66.863861831185	0.1151123046875	34.9999999116335	-0.0142923444509506	
352	66.9638618309325	0.115753173828125	35.099999911381	0.0185139272361994	
353	67.06386183068	0.115447998046875	35.1999999111285	-0.014597519300878	
354	67.1638618304275	0.11566162109375	35.2999999108761	0.00961300078779459	
355	67.2638618301751	0.114990234375	35.3999999106236	-0.0158182177692652	
356	67.3638618299226	0.115631103515625	35.4999999103711	0.0202941112220287	
357	67.4638618296701	0.115478515625	35.5999999101186	-0.0125121595337987	
358	67.5638618294176	0.115753173828125	35.6999999098662	0.00895178876817226	
359	67.6638618291652	0.115936279296875	35.7999999096137	-0.000356037053279579	
360	67.7638618289127	0.1160888671875	35.8999999093612	0.00157673552166671	
361	67.8638618286602	0.116302490234375	35.9999999091087	0.00274657155387104	
362	67.9638618284077	0.1158447265625	36.0999999088563	-0.0103759374469519	
363	68.0638618281553	0.11529541015625	36.1999999086038	-0.00401813257485628	
364	68.1638618279028	0.115386962890625	36.2999999083513	0.00656125415116549	
365	68.2638618276503	0.115814208984375	36.3999999080988	0.00493365619331598	
366	68.3638618273978	0.115325927734375	36.4999999078464	-0.0136311333626509	
367	68.4638618271454	0.11590576171875	36.5999999075939	0.0177509896457195	
368	68.5638618268929	0.11578369140625	36.6999999073414	-0.0106302490457892	
369	68.6638618266404	0.11541748046875	36.7999999070889	-0.0033569207880646	
370	68.7638618263879	0.115875244140625	36.8999999068365	0.0122578470036387	
371	68.8638618261355	0.11578369140625	36.999999906584	-0.00823971442878246	
372	68.963861825883	0.1153564453125	37.0999999063315	-0.00523883104324341	
373	69.0638618256305	0.1158447265625	37.199999906079	0.0136311333626509	
374	69.163861825378	0.11572265625	37.2999999058266	-0.00935868825763464	
375	69.2638618251256	0.1158447265625	37.3999999055741	0.00528969336301088	
376	69.3638618248731	0.11566162109375	37.4999999053216	-0.00518796872347593	
377	69.4638618246206	0.115264892578125	37.5999999050691	-0.00473020644858479	
378	69.5638618243681	0.115509033203125	37.6999999048167	0.00849402695894241	
379	69.6638618241157	0.11578369140625	37.7999999045642	0.000864661415107548	
380	69.7638618238632	0.115447998046875	37.8999999043117	-0.00854488927870989	
381	69.8638618236107	0.115478515625	37.9999999040592	0.00539141846820712	
382	69.9638618233582	0.11517333984375	38.0999999038067	-0.0070698787458241	
383	70.0638618231058	0.114898681640625	38.1999999035543	-0.00137328577693552	
384	70.1638618228533	0.115234375	38.2999999033018	0.00834143999963999	
385	70.2638618226008	0.114593505859375	38.3999999030493	-0.0165811534970999	
386	70.3638618223483	0.114654541015625	38.4999999027968	0.00971472542732954	
387	70.4638618220959	0.1143798828125	38.5999999025444	-0.00788367725908756	
388	70.5638618218434	0.114501953125	38.6999999022919	0.00564573053270578	
389	70.6638618215909	0.1146240234375	38.7999999020394	-0.000101724872365594	
390	70.7638618213384	0.11456298828125	38.8999999017869	-0.00213622231967747	
391	70.8638618210859	0.1148681640625	38.9999999015345	0.0067138415761292	
392	70.9638618208335	0.11474609375	39.099999901282	-0.00600176770240068	
393	71.063861820581	0.11492919921875	39.1999999010295	0.0057983179576695	
394	71.1638618203285	0.11505126953125	39.299999900777	-0.000305174617096782	
395	71.263861820076	0.114990234375	39.3999999005246	-0.00193277257494628	
396	71.3638618198236	0.114990234375	39.4999999002721	0.00111897359602153	
397	71.4638618195711	0.114410400390625	39.5999999000196	-0.0108336992561817	
398	71.5638618193186	0.11419677734375	39.6999998997671	0.00284829642623663	
399	71.6638618190661	0.114898681640625	39.7999998995147	0.0134276831522584	
400	71.7638618188137	0.115081787109375	39.8999998992622	-0.00554400542750955	
401	71.8638618185612	0.115264892578125	39.9999998990097	0.00356037053279579	
402	71.9638618183087	0.11517333984375	40.0999998987572	-0.00320433359593153	
403	72.0638618180562	0.114959716796875	40.1999998985048	-0.00223794719204307	
404	72.1638618178038	0.11370849609375	40.2999998982523	-0.0207518748939037	
405	72.2638618175513	0.113800048828125	40.3999998979998	0.0155639052391052	
406	72.3638618172988	0.1142578125	40.4999998977473	0.00315347104333341	
407	72.4638618170463	0.11444091796875	40.5999998974949	-0.0016784603940323	
408	72.5638618167939	0.114105224609375	40.6999998972424	-0.00676470389589667	
409	72.6638618165414	0.11431884765625	40.7999998969899	0.00844316463917494	
410	72.7638618162889	0.113922119140625	40.8999998967374	-0.0108845615759492	
411	72.8638618160364	0.1141357421875	40.999999896485	0.00925696361809969	
412	72.963861815784	0.113983154296875	41.0999998962325	-0.00661211693659425	
413	73.0638618155315	0.1143798828125	41.19999989598	0.00976558774709702	
414	73.163861815279	0.11383056640625	41.2999998957275	-0.0152078680694103	
415	73.2638618150265	0.114501953125	41.399999895475	0.0200398005545139	
416	73.3638618147741	0.1148681640625	41.4999998952226	-0.00295002129860222	
417	73.4638618145216	0.11474609375	41.5999998949701	-0.00427244463935494	
418	73.5638618142691	0.11492919921875	41.6999998947176	0.00600176770240068	
419	73.6638618140166	0.115081787109375	41.7999998944651	0.000254312180913985	
420	73.7638618137642	0.115203857421875	41.8999998942127	0.00106811115983874	
421	73.8638618135117	0.115325927734375	41.9999998939602	0.00132242334075272	
422	73.9638618132592	0.11529541015625	42.0999998937077	-0.00157673552166671	
423	74.0638618130067	0.11541748046875	42.1999998934552	0.00300088385120034	
424	74.1638618127542	0.11566162109375	42.2999998932028	0.00295002129860222	
425	74.2638618125018	0.115386962890625	42.3999998929503	-0.00747677823528647	
426	74.3638618122493	0.11529541015625	42.4999998926978	0.00233967206440866	
427	74.4638618119968	0.114776611328125	42.5999998924453	-0.00935868825763464	
428	74.5638618117443	0.115020751953125	42.6999998921929	0.0102233495563269	
429	74.6638618114919	0.115142822265625	42.7999998919404	-0.00233967206440866	
430	74.7638618112394	0.11474609375	42.8999998916879	-0.00788367725908756	
431	74.8638618109869	0.11480712890625	42.9999998914354	0.00615435466170311	
432	74.9638618107344	0.1146240234375	43.099999891183	-0.00539141846820712	
433	75.063861810482	0.11419677734375	43.1999998909305	-0.00549314310774207	
434	75.1638618102295	0.1142578125	43.299999890678	0.00549314310774207	
435	75.263861809977	0.113739013671875	43.3999998904255	-0.0116474982351065	
436	75.3638618097245	0.1136474609375	43.4999998901731	0.00457761948928237	
437	75.4638618094721	0.1138916015625	43.5999998899206	0.00381468283012509	
438	75.5638618092196	0.11346435546875	43.6999998896681	-0.0109862862154841	
439	75.6638618089671	0.11309814453125	43.7999998894156	-0.000915523851290345	
440	75.7638618087146	0.1134033203125	43.8999998891632	0.00844316463917494	
441	75.8638618084622	0.11328125	43.9999998889107	-0.00701901642605662	
442	75.9638618082097	0.1131591796875	44.0999998886582	0.000203449744731188	
443	76.0638618079572	0.11334228515625	44.1999998884057	0.00437416974455118	
444	76.1638618077047	0.113739013671875	44.2999998881533	0.00473020644858479	
445	76.2638618074523	0.11370849609375	44.3999998879008	-0.00457761948928237	
446	76.3638618071998	0.113739013671875	44.4999998876483	0.00223794719204307	
447	76.4638618069473	0.11370849609375	44.5999998873958	-0.00101724872365594	
448	76.5638618066948	0.113616943359375	44.6999998871433	-0.00122069846838713	
449	76.6638618064424	0.112823486328125	44.7999998868909	-0.0135802701115608	
450	76.7638618061899	0.1124267578125	44.8999998866384	0.0016784603940323	
451	76.8638618059374	0.11273193359375	44.9999998863859	0.00757850287482142	
452	76.9638618056849	0.112518310546875	45.0999998861334	-0.00879920180886984	
453	77.0638618054325	0.111968994140625	45.199999885881	-0.00656125415116549	
454	77.16386180518	0.112335205078125	45.2999998856285	0.0124104348942637	
455	77.2638618049275	0.112457275390625	45.399999885376	-0.00386554514989257	
456	77.363861804675	0.11248779296875	45.4999998851235	0.000356037053279579	
457	77.4638618044225	0.1124267578125	45.5999998848711	-0.00106811115983874	
458	77.5638618041701	0.1131591796875	45.6999998846186	0.0142414821311831	
459	77.6638618039176	0.1134033203125	45.7999998843661	-0.00427244463935494	
460	77.7638618036651	0.11322021484375	45.8999998841136	-0.00376382027752697	
461	77.8638618034126	0.113739013671875	45.9999998838612	0.0124612972140312	
462	77.9638618031602	0.113861083984375	46.0999998836087	-0.00442503206431866	
463	78.0638618029077	0.113800048828125	46.1999998833562	-0.000813798978924751	
464	78.1638618026552	0.11407470703125	46.2999998831037	0.00615435466170311	
465	78.2638618024027	0.114593505859375	46.3999998828513	0.00610349234193563	
466	78.3638618021503	0.114471435546875	46.4999998825988	-0.00737505313009024	
467	78.4638618018978	0.114166259765625	46.5999998823463	-0.00244139693677425	
468	78.5638618016453	0.11480712890625	46.6999998820938	0.0149026941508055	
469	78.6638618013928	0.114501953125	46.7999998818414	-0.0140888951718807	
470	78.7638618011404	0.11444091796875	46.8999998815889	0.00457761948928237	
471	78.8638618008879	0.11419677734375	46.9999998813364	-0.00478106923401356	
472	78.9638618006354	0.11505126953125	47.0999998810839	0.0183104779571295	
473	79.0638618003829	0.114349365234375	47.1999998808315	-0.0236510336399078	
474	79.1638618001305	0.115020751953125	47.299999880579	0.0233458578586578	
475	79.263861799878	0.115203857421875	47.3999998803265	-0.00681556668132544	
476	79.3638617996255	0.115692138671875	47.499999880074	0.00905351340770721	
477	79.463861799373	0.115478515625	47.5999998798216	-0.00900265108793974	
478	79.5638617991206	0.116058349609375	47.6999998795691	0.0147501062601805	
479	79.6638617988681	0.116241455078125	47.7999998793166	-0.00411985721439123	
480	79.7638617986156	0.1158447265625	47.8999998790641	-0.00747677823528647	
481	79.8638617983631	0.1156005859375	47.9999998788116	0.000762936542741954	
482	79.9638617981107	0.115692138671875	48.0999998785592	0.00320433359593153	
483	80.0638617978582	0.1160888671875	48.1999998783067	0.00539141846820712	
484	80.1638617976057	0.11602783203125	48.2999998780542	-0.0054422807879746	
485	80.2638617973532	0.11590576171875	48.3999998778017	-0.000203449744731188	
486	80.3638617971008	0.116241455078125	48.4999998775493	0.00737505313009024	
487	80.4638617968483	0.115936279296875	48.5999998772968	-0.00991817470639944	
488	80.5638617965958	0.11541748046875	48.6999998770443	-0.00483193155378103	
489	80.6638617963433	0.115478515625	48.7999998767918	0.00615435466170311	
490	80.7638617960909	0.11517333984375	48.8999998765394	-0.00803626514971256	
491	80.8638617958384	0.115692138671875	48.9999998762869	0.013275096192956	
492	80.9638617955859	0.1163330078125	49.0999998760344	0.00467934412881732	
493	81.0638617953334	0.116058349609375	49.1999998757819	-0.0107828369364142	
494	81.1638617950809	0.115875244140625	49.2999998755295	0.0019836351275444	
495	81.2638617948285	0.11614990234375	49.399999875277	0.00625607976689935	
496	81.363861794576	0.11627197265625	49.4999998750245	-0.00157673552166671	
497	81.4638617943235	0.11578369140625	49.599999874772	-0.00946041289716959	
498	81.563861794071	0.115875244140625	49.6999998745196	0.00778195261955261	
499	81.6638617938186	0.11541748046875	49.7999998742671	-0.0110880108550191	
500	81.7638617935661	0.115509033203125	49.8999998740146	0.00732419081032276	
501	81.8638617933136	0.115203857421875	49.9999998737621	-0.00818885210901499	
502	81.9638617930611	0.115753173828125	50.0999998735097	0.0139363072812557	
503	82.0638617928087	0.11505126953125	50.1999998732572	-0.0202941112220287	
504	82.1638617925562	0.11492919921875	50.2999998730047	0.00778195261955261	
505	82.2638617923037	0.1151123046875	50.3999998727522	0.00244139693677425	
506	82.3638617920512	0.115234375	50.4999998724998	-0.000305174617096782	
507	82.4638617917988	0.1153564453125	50.5999998722473	0.00142414821311831	
508	82.5638617915463	0.115142822265625	50.6999998719948	-0.00493365619331598	
509	82.6638617912938	0.115264892578125	50.7999998717423	0.00513710593804717	
510	82.7638617910413	0.1153564453125	50.8999998714899	-0.000457761925645173	
511	82.8638617907889	0.114990234375	50.9999998712374	-0.00737505313009024	
512	82.9638617905364	0.11572265625	51.0999998709849	0.0180053021758795	
513	83.0638617902839	0.11553955078125	51.1999998707324	-0.013122508302331	
514	83.1638617900314	0.11602783203125	51.29999987048	0.0135294077917933	
515	83.263861789779	0.116302490234375	51.3999998702275	-0.00127156090456992	
516	83.3638617895265	0.116424560546875	51.499999869975	0.00066121167037636	
517	83.463861789274	0.116424560546875	51.5999998697225	-0.00050862436182797	
518	83.5638617890215	0.11627197265625	51.69999986947	-0.00239053461700678	
519	83.6638617887691	0.117034912109375	51.7999998692176	0.0157673545181751	
520	83.7638617885166	0.116943359375	51.8999998689651	-0.0110880108550191	
521	83.8638617882641	0.1165771484375	51.9999998687126	-0.00310260872356594	
522	83.9638617880116	0.116455078125	52.0999998684601	0.0017293228302151	
523	84.0638617877592	0.116455078125	52.1999998682077	0.000203449744731188	
524	84.1638617875067	0.116455078125	52.2999998679552	-0.000406899489462376	
525	84.2638617872542	0.116790771484375	52.3999998677027	0.00615435466170311	
526	84.3638617870017	0.116485595703125	52.4999998674502	-0.00951127521693707	
527	84.4638617867492	0.11676025390625	52.5999998671978	0.00971472542732954	
528	84.5638617864968	0.116546630859375	52.6999998669453	-0.00813798978924751	
529	84.6638617862443	0.11724853515625	52.7999998666928	0.016275979578495	
530	84.7638617859918	0.11712646484375	52.8999998664403	-0.0111388731747866	
531	84.8638617857393	0.11737060546875	52.9999998661879	0.00823971442878246	
532	84.9638617854869	0.117584228515625	53.0999998659354	0.00066121167037636	
533	85.0638617852344	0.11767578125	53.1999998656829	0	
534	85.1638617849819	0.117889404296875	53.2999998654304	0.00356037053279579	
535	85.2638617847294	0.1177978515625	53.399999865178	-0.00386554514989257	
536	85.363861784477	0.118255615234375	53.4999998649255	0.0101724872365594	
537	85.4638617842245	0.118560791015625	53.599999864673	-5.0862436182797E-05	
538	85.563861783972	0.118560791015625	53.6999998644205	-0.00203449744731188	
539	85.6638617837195	0.118865966796875	53.7999998641681	0.00661211693659425	
540	85.7638617834671	0.118865966796875	53.8999998639156	-0.00356037053279579	
541	85.8638617832146	0.11920166015625	53.9999998636631	0.00717160338535905	
542	85.9638617829621	0.119415283203125	54.0999998634106	0	
543	86.0638617827096	0.1192626953125	54.1999998631582	-0.00417071999981999	
544	86.1638617824572	0.119384765625	54.2999998629057	0.00473020644858479	
545	86.2638617822047	0.119537353515625	54.3999998626532	0.000864661415107548	
546	86.3638617819522	0.119964599609375	54.4999998624007	0.00645952951163054	
547	86.4638617816997	0.119873046875	54.5999998621483	-0.00615435466170311	
548	86.5638617814473	0.1199951171875	54.6999998618958	0.00473020644858479	
549	86.6638617811948	0.12005615234375	54.7999998616433	-0.000610349234193563	
550	86.7638617809423	0.120513916015625	54.8999998613908	0.00808712746948004	
551	86.8638617806898	0.119598388671875	54.9999998611383	-0.0219217091798782	
552	86.9638617804374	0.119720458984375	55.0999998608859	0.0144449323415756	
553	87.0638617801849	0.12042236328125	55.1999998606334	0.00839230231940746	
554	87.1638617799324	0.121063232421875	55.2999998603809	0.00396727025508881	
555	87.2638617796799	0.12176513671875	55.3999998601284	0.00773109029978514	
556	87.3638617794275	0.1220703125	55.499999859876	-0.000457761925645173	
557	87.463861779175	0.12103271484375	55.5999998596235	-0.0202432498335838	
558	87.5638617789225	0.121063232421875	55.699999859371	0.0136819956824183	
559	87.66386177867	0.12109375	55.7999998591185	-0.00325519591569901	
560	87.7638617784175	0.121002197265625	55.8999998588661	-0.00193277257494628	
561	87.8638617781651	0.121002197265625	55.9999998586136	0.00116983603220433	
562	87.9638617779126	0.121246337890625	56.0999998583611	0.00417071999981999	
563	88.0638617776601	0.120819091796875	56.1999998581086	-0.0106811113655567	
564	88.1638617774076	0.12017822265625	56.2999998578562	-0.00595090491697192	
565	88.2638617771552	0.12042236328125	56.3999998576037	0.0105285244062543	
566	88.3638617769027	0.1207275390625	56.4999998573512	0.000610349234193563	
567	88.4638617766502	0.120574951171875	56.5999998570987	-0.00554400542750955	
568	88.5638617763977	0.120330810546875	56.6999998568463	-0.0016784603940323	
569	88.6638617761453	0.12066650390625	56.7999998565938	0.00849402695894241	
570	88.7638617758928	0.120635986328125	56.8999998563413	-0.00528969336301088	
571	88.8638617756403	0.12103271484375	56.9999998560888	0.00874833948910236	
572	88.9638617753878	0.12200927734375	57.0999998558364	0.0131733706220984	
573	89.0638617751354	0.121673583984375	57.1999998555839	-0.016225116327405	
574	89.1638617748829	0.121490478515625	57.2999998553314	0.00381468283012509	
575	89.2638617746304	0.1212158203125	57.3999998550789	-0.00401813257485628	
576	89.3638617743779	0.12127685546875	57.4999998548265	0.0037129579577595	
577	89.4638617741255	0.12152099609375	57.599999854574	0.00284829642623663	
578	89.563861773873	0.12091064453125	57.6999998543215	-0.0138345826417208	
579	89.6638617736205	0.121490478515625	57.799999854069	0.0185647886246443	
580	89.763861773368	0.121185302734375	57.8999998538166	-0.0143940690904856	
581	89.8638617731156	0.121124267578125	57.9999998535641	0.00437416974455118	
582	89.9638617728631	0.121002197265625	58.0999998533116	-0.00254312180913985	
583	90.0638617726106	0.121246337890625	58.1999998530591	0.00569659285247326	
584	90.1638617723581	0.121002197265625	58.2999998528066	-0.00773109029978514	
585	90.2638617721057	0.1204833984375	58.3999998525542	-0.00584918027743697	
586	90.3638617718532	0.121368408203125	58.4999998523017	0.0214639473706484	
587	90.4638617716007	0.12127685546875	58.5999998520492	-0.0137328580021858	
588	90.5638617713482	0.121124267578125	58.6999998517967	0.00122069846838713	
589	90.6638617710958	0.12066650390625	58.7999998515443	-0.00691729132086039	
590	90.7638617708433	0.120635986328125	58.8999998512918	0.00427244463935494	
591	90.8638617705908	0.121246337890625	58.9999998510393	0.010019900277257	
592	90.9638617703383	0.12127685546875	59.0999998507868	-0.00666297925636172	
593	91.0638617700859	0.121002197265625	59.1999998505344	-0.0033569207880646	
594	91.1638617698334	0.120849609375	59.2999998502819	0.00050862436182797	
595	91.2638617695809	0.120849609375	59.3999998500294	0.000864661415107548	
596	91.3638617693284	0.120849609375	59.4999998497769	-0.00050862436182797	
597	91.4638617690759	0.12109375	59.5999998495245	0.00447589438408613	
598	91.5638617688235	0.11981201171875	59.699999849272	-0.0263467412441969	
599	91.663861768571	0.119842529296875	59.7999998490195	0.0163268428295851	
600	91.7638617683185	0.1204833984375	59.899999848767	0.00712074106559157	
