Index	Potential applied (V)	Time (s)	WE(1).Current (A)	WE(1).Potential (V)
1	0.00244140625	236.721204402336	-0.00461334228515625	0.002716064453125
2	0.0048828125	236.745604402275	-0.0045623779296875	0.0050933837890625
3	0.00732421875	236.770004402213	-0.004615478515625	0.0075836181640625
4	0.009765625	236.794404402152	-0.00456298828125	0.009979248046875
5	0.01220703125	236.81880440209	-0.00460693359375	0.012445068359375
6	0.0146484375	236.843204402028	-0.004573974609375	0.0148834228515625
7	0.01708984375	236.867604401967	-0.0045904541015625	0.0173065185546875
8	0.01953125	236.892004401905	-0.0045904541015625	0.0197723388671875
9	0.02197265625	236.916404401844	-0.004571533203125	0.02216796875
10	0.0244140625	236.940804401782	-0.0046038818359375	0.0246795654296875
11	0.02685546875	236.96520440172	-0.00455780029296875	0.02703857421875
12	0.029296875	236.989604401659	-0.00460906982421875	0.029534912109375
13	0.03173828125	237.014004401597	-0.0045538330078125	0.0319244384765625
14	0.0341796875	237.038404401536	-0.00460296630859375	0.0344268798828125
15	0.03662109375	237.062804401474	-0.004560546875	0.036834716796875
16	0.0390625	237.087204401412	-0.00458740234375	0.039276123046875
17	0.04150390625	237.111604401351	-0.0045751953125	0.041748046875
18	0.0439453125	237.136004401289	-0.00456756591796875	0.044140625
19	0.04638671875	237.160404401228	-0.0045904541015625	0.046630859375
20	0.048828125	237.184804401166	-0.0045513916015625	0.0496826171875
21	0.05126953125	237.209204401104	-0.0046002197265625	0.052215576171875
22	0.0537109375	237.233604401043	-0.00454498291015625	0.05462646484375
23	0.05615234375	237.258004400981	-0.00459808349609375	0.05706787109375
24	0.05859375	237.28240440092	-0.00455047607421875	0.05950927734375
25	0.06103515625	237.306804400858	-0.00458648681640625	0.06201171875
26	0.0634765625	237.331204400796	-0.00456573486328125	0.064453125
27	0.06591796875	237.355604400735	-0.0045697021484375	0.06683349609375
28	0.068359375	237.380004400673	-0.004583740234375	0.069305419921875
29	0.07080078125	237.404404400611	-0.0045538330078125	0.07171630859375
30	0.0732421875	237.42880440055	-0.00459747314453125	0.07415771484375
31	0.07568359375	237.453204400488	-0.0045452880859375	0.076568603515625
32	0.078125	237.477604400427	-0.00459991455078125	0.07904052734375
33	0.08056640625	237.502004400365	-0.00454803466796875	0.08148193359375
34	0.0830078125	237.526404400303	-0.00459228515625	0.08392333984375
35	0.08544921875	237.550804400242	-0.00456085205078125	0.08636474609375
36	0.087890625	237.57520440018	-0.0045758056640625	0.08880615234375
37	0.09033203125	237.599604400119	-0.00457855224609375	0.091278076171875
38	0.0927734375	237.624004400057	-0.00455810546875	0.093658447265625
39	0.09521484375	237.648404399995	-0.0045928955078125	0.09619140625
40	0.09765625	237.672804399934	-0.00454498291015625	0.09857177734375
41	0.10009765625	237.697204399872	-0.00459747314453125	0.101043701171875
42	0.1025390625	237.721604399811	-0.00454254150390625	0.1033935546875
43	0.10498046875	237.746004399749	-0.004591064453125	0.105926513671875
44	0.107421875	237.770404399687	-0.00455078125	0.108306884765625
45	0.10986328125	237.794804399626	-0.00457489013671875	0.11077880859375
46	0.1123046875	237.819204399564	-0.0045654296875	0.11322021484375
47	0.11474609375	237.843604399503	-0.00455474853515625	0.1156005859375
48	0.1171875	237.868004399441	-0.0045794677734375	0.11810302734375
49	0.11962890625	237.892404399379	-0.00453643798828125	0.120452880859375
50	0.1220703125	237.916804399318	-0.004586181640625	0.123077392578125
51	0.12451171875	237.941204399256	-0.004530029296875	0.125335693359375
52	0.126953125	237.965604399195	-0.0045831298828125	0.127899169921875
53	0.12939453125	237.990004399133	-0.00453582763671875	0.130218505859375
54	0.1318359375	238.014404399071	-0.00457061767578125	0.13275146484375
55	0.13427734375	238.03880439901	-0.00455108642578125	0.13519287109375
56	0.13671875	238.063204398948	-0.0045526123046875	0.137664794921875
57	0.13916015625	238.087604398887	-0.004569091796875	0.140106201171875
58	0.1416015625	238.112004398825	-0.0045367431640625	0.1424560546875
59	0.14404296875	238.136404398763	-0.0045819091796875	0.14501953125
60	0.146484375	238.160804398702	-0.00452880859375	0.14727783203125
61	0.14892578125	238.18520439864	-0.0045843505859375	0.1497802734375
62	0.1513671875	238.209604398579	-0.0045318603515625	0.152252197265625
63	0.15380859375	238.234004398517	-0.00457550048828125	0.154693603515625
64	0.15625	238.258404398455	-0.0045465087890625	0.157135009765625
65	0.15869140625	238.282804398394	-0.0045599365234375	0.1595458984375
66	0.1611328125	238.307204398332	-0.0045660400390625	0.16204833984375
67	0.16357421875	238.331604398271	-0.00454376220703125	0.1644287109375
68	0.166015625	238.356004398209	-0.00458160400390625	0.16693115234375
69	0.16845703125	238.380404398147	-0.00453277587890625	0.16925048828125
70	0.1708984375	238.404804398086	-0.00458709716796875	0.171844482421875
71	0.17333984375	238.429204398024	-0.0045318603515625	0.1741943359375
72	0.17578125	238.453604397963	-0.00458038330078125	0.176666259765625
73	0.17822265625	238.478004397901	-0.00454193115234375	0.179107666015625
74	0.1806640625	238.502404397839	-0.0045654296875	0.1815185546875
75	0.18310546875	238.526804397778	-0.00455841064453125	0.183990478515625
76	0.185546875	238.551204397716	-0.00454620361328125	0.186370849609375
77	0.18798828125	238.575604397655	-0.00457305908203125	0.188873291015625
78	0.1904296875	238.600004397593	-0.004530029296875	0.191253662109375
79	0.19287109375	238.624404397531	-0.00458038330078125	0.1937255859375
80	0.1953125	238.64880439747	-0.0045233154296875	0.1961669921875
81	0.19775390625	238.673204397408	-0.0045758056640625	0.198638916015625
82	0.2001953125	238.697604397346	-0.00452880859375	0.2010498046875
83	0.20263671875	238.722004397285	-0.00456146240234375	0.2034912109375
84	0.205078125	238.746404397223	-0.00454345703125	0.2059326171875
85	0.20751953125	238.770804397162	-0.00454254150390625	0.208343505859375
86	0.2099609375	238.7952043971	-0.00456024169921875	0.21087646484375
87	0.21240234375	238.819604397038	-0.00452545166015625	0.21319580078125
88	0.21484375	238.844004396977	-0.004571533203125	0.215667724609375
89	0.21728515625	238.868404396915	-0.00451629638671875	0.218048095703125
90	0.2197265625	238.892804396854	-0.0045721435546875	0.220672607421875
91	0.22216796875	238.917204396792	-0.00451995849609375	0.222991943359375
92	0.224609375	238.94160439673	-0.004561767578125	0.225433349609375
93	0.22705078125	238.966004396669	-0.004534912109375	0.227935791015625
94	0.2294921875	238.990404396607	-0.00454559326171875	0.2303466796875
95	0.23193359375	239.014804396546	-0.0045538330078125	0.2327880859375
96	0.234375	239.039204396484	-0.00452911376953125	0.235198974609375
97	0.23681640625	239.063604396422	-0.0045697021484375	0.2376708984375
98	0.2392578125	239.088004396361	-0.0045184326171875	0.24005126953125
99	0.24169921875	239.112404396299	-0.004573974609375	0.242645263671875
100	0.244140625	239.136804396238	-0.00451904296875	0.24493408203125
101	0.24658203125	239.161204396176	-0.00456695556640625	0.2474365234375
102	0.2490234375	239.185604396114	-0.0045306396484375	0.2498779296875
103	0.25146484375	239.210004396053	-0.0045513916015625	0.25225830078125
104	0.25390625	239.234404395991	-0.00454803466796875	0.25482177734375
105	0.25634765625	239.25880439593	-0.0045330810546875	0.2572021484375
106	0.2587890625	239.283204395868	-0.00456390380859375	0.25970458984375
107	0.26123046875	239.307604395806	-0.00451873779296875	0.262054443359375
108	0.263671875	239.332004395745	-0.00457061767578125	0.264556884765625
109	0.26611328125	239.356404395683	-0.00451324462890625	0.2669677734375
110	0.2685546875	239.380804395622	-0.0045654296875	0.269378662109375
111	0.27099609375	239.40520439556	-0.00451934814453125	0.271820068359375
112	0.2734375	239.429604395498	-0.00454986572265625	0.274261474609375
113	0.27587890625	239.454004395437	-0.0045343017578125	0.276702880859375
114	0.2783203125	239.478404395375	-0.004530029296875	0.27911376953125
115	0.28076171875	239.502804395314	-0.00455078125	0.28167724609375
116	0.283203125	239.527204395252	-0.004512939453125	0.28399658203125
117	0.28564453125	239.55160439519	-0.0045611572265625	0.286529541015625
118	0.2880859375	239.576004395129	-0.00450469970703125	0.288787841796875
119	0.29052734375	239.600404395067	-0.0045599365234375	0.29132080078125
120	0.29296875	239.624804395006	-0.00450836181640625	0.29376220703125
121	0.29541015625	239.649204394944	-0.0045477294921875	0.29620361328125
122	0.2978515625	239.673604394882	-0.00452239990234375	0.298675537109375
123	0.30029296875	239.698004394821	-0.00453033447265625	0.301025390625
124	0.302734375	239.722404394759	-0.00454132080078125	0.303497314453125
125	0.30517578125	239.746804394698	-0.00451385498046875	0.305938720703125
126	0.3076171875	239.771204394636	-0.004556884765625	0.30841064453125
127	0.31005859375	239.795604394574	-0.00450439453125	0.310821533203125
128	0.3125	239.820004394513	-0.0045611572265625	0.3133544921875
129	0.31494140625	239.844404394451	-0.0045062255859375	0.31573486328125
130	0.3173828125	239.868804394389	-0.00455322265625	0.31829833984375
131	0.31982421875	239.893204394328	-0.00451873779296875	0.320587158203125
132	0.322265625	239.917604394266	-0.00453826904296875	0.323028564453125
133	0.32470703125	239.942004394205	-0.0045379638671875	0.325592041015625
134	0.3271484375	239.966404394143	-0.00451995849609375	0.32794189453125
135	0.32958984375	239.990804394081	-0.00455413818359375	0.330413818359375
136	0.33203125	240.01520439402	-0.00450714111328125	0.33282470703125
137	0.33447265625	240.039604393958	-0.0045611572265625	0.33526611328125
138	0.3369140625	240.064004393897	-0.0045037841796875	0.337677001953125
139	0.33935546875	240.088404393835	-0.00455596923828125	0.34014892578125
140	0.341796875	240.112804393773	-0.00451263427734375	0.34259033203125
141	0.34423828125	240.137204393712	-0.00454071044921875	0.345062255859375
142	0.3466796875	240.16160439365	-0.00452789306640625	0.3475341796875
143	0.34912109375	240.186004393589	-0.004520263671875	0.349884033203125
144	0.3515625	240.210404393527	-0.00454315185546875	0.352386474609375
145	0.35400390625	240.234804393465	-0.00450225830078125	0.35479736328125
146	0.3564453125	240.259204393404	-0.00455230712890625	0.357269287109375
147	0.35888671875	240.283604393342	-0.0044940185546875	0.35968017578125
148	0.361328125	240.308004393281	-0.00454864501953125	0.362152099609375
149	0.36376953125	240.332404393219	-0.0044976806640625	0.36456298828125
150	0.3662109375	240.356804393157	-0.00453399658203125	0.36700439453125
151	0.36865234375	240.381204393096	-0.0045111083984375	0.36944580078125
152	0.37109375	240.405604393034	-0.00451446533203125	0.371856689453125
153	0.37353515625	240.430004392973	-0.00452789306640625	0.3743896484375
154	0.3759765625	240.454404392911	-0.004495849609375	0.376708984375
155	0.37841796875	240.478804392849	-0.00454071044921875	0.37921142578125
156	0.380859375	240.503204392788	-0.00448638916015625	0.381591796875
157	0.38330078125	240.527604392726	-0.00454376220703125	0.38409423828125
158	0.3857421875	240.552004392665	-0.00448944091796875	0.38653564453125
159	0.38818359375	240.576404392603	-0.00453582763671875	0.388946533203125
160	0.390625	240.600804392541	-0.0045037841796875	0.391357421875
161	0.39306640625	240.62520439248	-0.00451934814453125	0.393798828125
162	0.3955078125	240.649604392418	-0.004522705078125	0.39630126953125
163	0.39794921875	240.674004392357	-0.00450164794921875	0.398681640625
164	0.400390625	240.698404392295	-0.0045391845703125	0.401214599609375
165	0.40283203125	240.722804392233	-0.00448883056640625	0.403594970703125
166	0.4052734375	240.747204392172	-0.004544677734375	0.4061279296875
167	0.40771484375	240.77160439211	-0.00448760986328125	0.408477783203125
168	0.41015625	240.796004392049	-0.00453948974609375	0.410888671875
169	0.41259765625	240.820404391987	-0.004498291015625	0.41339111328125
170	0.4150390625	240.844804391925	-0.00452392578125	0.41583251953125
171	0.41748046875	240.869204391864	-0.00451507568359375	0.4183349609375
172	0.419921875	240.893604391802	-0.0045037841796875	0.42071533203125
173	0.42236328125	240.918004391741	-0.0045306396484375	0.423187255859375
174	0.4248046875	240.942404391679	-0.00448638916015625	0.425506591796875
175	0.42724609375	240.966804391617	-0.004537353515625	0.4281005859375
176	0.4296875	240.991204391556	-0.00447906494140625	0.430450439453125
177	0.43212890625	241.015604391494	-0.00453338623046875	0.432891845703125
178	0.4345703125	241.040004391432	-0.004483642578125	0.435333251953125
179	0.43701171875	241.064404391371	-0.00451812744140625	0.43780517578125
180	0.439453125	241.088804391309	-0.0044970703125	0.440216064453125
181	0.44189453125	241.113204391248	-0.00449615478515625	0.442657470703125
182	0.4443359375	241.137604391186	-0.00451263427734375	0.445159912109375
183	0.44677734375	241.162004391124	-0.00447662353515625	0.447509765625
184	0.44921875	241.186404391063	-0.00452301025390625	0.45001220703125
185	0.45166015625	241.210804391001	-0.0044659423828125	0.45233154296875
186	0.4541015625	241.23520439094	-0.004522705078125	0.454864501953125
187	0.45654296875	241.259604390878	-0.0044671630859375	0.45721435546875
188	0.458984375	241.284004390816	-0.0045111083984375	0.459747314453125
189	0.46142578125	241.308404390755	-0.0044805908203125	0.462188720703125
190	0.4638671875	241.332804390693	-0.0044927978515625	0.464569091796875
191	0.46630859375	241.357204390632	-0.00449920654296875	0.46710205078125
192	0.46875	241.38160439057	-0.00447418212890625	0.469512939453125
193	0.47119140625	241.406004390508	-0.00451446533203125	0.47198486328125
194	0.4736328125	241.430404390447	-0.004461669921875	0.474395751953125
195	0.47607421875	241.454804390385	-0.00451904296875	0.47686767578125
196	0.478515625	241.479204390324	-0.0044610595703125	0.479248046875
197	0.48095703125	241.503604390262	-0.0045111083984375	0.481689453125
198	0.4833984375	241.5280043902	-0.0044720458984375	0.484161376953125
199	0.48583984375	241.552404390139	-0.00449432373046875	0.48651123046875
200	0.48828125	241.576804390077	-0.00449005126953125	0.489044189453125
201	0.49072265625	241.601204390016	-0.00447418212890625	0.491455078125
202	0.4931640625	241.625604389954	-0.004505615234375	0.493927001953125
203	0.49560546875	241.650004389892	-0.0044573974609375	0.49627685546875
204	0.498046875	241.674404389831	-0.00451171875	0.498809814453125
205	0.50048828125	241.698804389769	-0.00445159912109375	0.501190185546875
206	0.5029296875	241.723204389708	-0.00450592041015625	0.50372314453125
207	0.50537109375	241.747604389646	-0.0044580078125	0.506103515625
208	0.5078125	241.772004389584	-0.0044891357421875	0.508544921875
209	0.51025390625	241.796404389523	-0.004471435546875	0.511016845703125
210	0.5126953125	241.820804389461	-0.00446624755859375	0.513397216796875
211	0.51513671875	241.8452043894	-0.00448638916015625	0.515838623046875
212	0.517578125	241.869604389338	-0.00444549560546875	0.51824951171875
213	0.52001953125	241.894004389276	-0.0044952392578125	0.520751953125
214	0.5224609375	241.918404389215	-0.0044342041015625	0.523101806640625
215	0.52490234375	241.942804389153	-0.00449127197265625	0.525604248046875
216	0.52734375	241.967204389092	-0.00443572998046875	0.52801513671875
217	0.52978515625	241.99160438903	-0.00447601318359375	0.530548095703125
218	0.5322265625	242.016004388968	-0.00444793701171875	0.53302001953125
219	0.53466796875	242.040404388907	-0.00445404052734375	0.535369873046875
220	0.537109375	242.064804388845	-0.0044647216796875	0.53778076171875
221	0.53955078125	242.089204388784	-0.00443359375	0.540191650390625
222	0.5419921875	242.113604388722	-0.0044781494140625	0.542724609375
223	0.54443359375	242.13800438866	-0.00442047119140625	0.545135498046875
224	0.546875	242.162404388599	-0.0044793701171875	0.547607421875
225	0.54931640625	242.186804388537	-0.004420166015625	0.54998779296875
226	0.5517578125	242.211204388475	-0.004468994140625	0.55242919921875
227	0.55419921875	242.235604388414	-0.00443145751953125	0.554931640625
228	0.556640625	242.260004388352	-0.004449462890625	0.55731201171875
229	0.55908203125	242.284404388291	-0.0044488525390625	0.559783935546875
230	0.5615234375	242.308804388229	-0.00442779541015625	0.56219482421875
231	0.56396484375	242.333204388167	-0.00446441650390625	0.564697265625
232	0.56640625	242.357604388106	-0.00441131591796875	0.567047119140625
233	0.56884765625	242.382004388044	-0.00446807861328125	0.569580078125
234	0.5712890625	242.406404387983	-0.004405517578125	0.57196044921875
235	0.57373046875	242.430804387921	-0.00445953369140625	0.574432373046875
236	0.576171875	242.455204387859	-0.00441253662109375	0.57684326171875
237	0.57861328125	242.479604387798	-0.0044403076171875	0.579254150390625
238	0.5810546875	242.504004387736	-0.00442718505859375	0.58172607421875
239	0.58349609375	242.528404387675	-0.00441497802734375	0.584136962890625
240	0.5859375	242.552804387613	-0.00444061279296875	0.586669921875
241	0.58837890625	242.577204387551	-0.0043927001953125	0.589080810546875
242	0.5908203125	242.60160438749	-0.00444488525390625	0.591583251953125
243	0.59326171875	242.626004387428	-0.00438079833984375	0.59393310546875
244	0.595703125	242.650404387367	-0.0044378662109375	0.596435546875
245	0.59814453125	242.674804387305	-0.004381103515625	0.59881591796875
246	0.6005859375	242.699204387243	-0.004417724609375	0.601226806640625
247	0.60302734375	242.723604387182	-0.00439208984375	0.603729248046875
248	0.60546875	242.74800438712	-0.004390869140625	0.6060791015625
249	0.60791015625	242.772404387059	-0.0044061279296875	0.608642578125
250	0.6103515625	242.796804386997	-0.00436614990234375	0.610992431640625
251	0.61279296875	242.821204386935	-0.0044146728515625	0.613494873046875
252	0.615234375	242.845604386874	-0.0043511962890625	0.615814208984375
253	0.61767578125	242.870004386812	-0.00441131591796875	0.618377685546875
254	0.6201171875	242.894404386751	-0.00434906005859375	0.6207275390625
255	0.62255859375	242.918804386689	-0.00439483642578125	0.6231689453125
256	0.625	242.943204386627	-0.0043597412109375	0.62567138671875
257	0.62744140625	242.967604386566	-0.0043719482421875	0.628021240234375
258	0.6298828125	242.992004386504	-0.00437591552734375	0.63055419921875
259	0.63232421875	243.016404386443	-0.00434661865234375	0.632965087890625
260	0.634765625	243.040804386381	-0.004388427734375	0.63543701171875
261	0.63720703125	243.065204386319	-0.00432830810546875	0.637786865234375
262	0.6396484375	243.089604386258	-0.0043890380859375	0.64031982421875
263	0.64208984375	243.114004386196	-0.0043212890625	0.6427001953125
264	0.64453125	243.138404386135	-0.00437469482421875	0.645172119140625
265	0.64697265625	243.162804386073	-0.0043280029296875	0.6475830078125
266	0.6494140625	243.187204386011	-0.0043505859375	0.649993896484375
267	0.65185546875	243.21160438595	-0.0043414306640625	0.652496337890625
268	0.654296875	243.236004385888	-0.0043212890625	0.65484619140625
269	0.65673828125	243.260404385827	-0.00435302734375	0.657379150390625
270	0.6591796875	243.284804385765	-0.004296875	0.659759521484375
271	0.66162109375	243.309204385703	-0.00435394287109375	0.662261962890625
272	0.6640625	243.333604385642	-0.0042816162109375	0.664642333984375
273	0.66650390625	243.35800438558	-0.0043389892578125	0.66705322265625
274	0.6689453125	243.382404385518	-0.0042803955078125	0.6695556640625
275	0.67138671875	243.406804385457	-0.00431243896484375	0.67193603515625
276	0.673828125	243.431204385395	-0.004288330078125	0.6744384765625
277	0.67626953125	243.455604385334	-0.0042779541015625	0.67681884765625
278	0.6787109375	243.480004385272	-0.0042974853515625	0.679290771484375
279	0.68115234375	243.50440438521	-0.004246826171875	0.681640625
280	0.68359375	243.528804385149	-0.00429901123046875	0.684234619140625
281	0.68603515625	243.553204385087	-0.00422576904296875	0.6865234375
282	0.6884765625	243.577604385026	-0.00428741455078125	0.689056396484375
283	0.69091796875	243.602004384964	-0.00421966552734375	0.691436767578125
284	0.693359375	243.626404384902	-0.0042620849609375	0.69384765625
285	0.69580078125	243.650804384841	-0.00422515869140625	0.69635009765625
286	0.6982421875	243.675204384779	-0.00422698974609375	0.69873046875
287	0.70068359375	243.699604384718	-0.00423553466796875	0.70123291015625
288	0.703125	243.724004384656	-0.00419403076171875	0.703582763671875
289	0.70556640625	243.748404384594	-0.0042413330078125	0.706146240234375
290	0.7080078125	243.772804384533	-0.00416900634765625	0.708465576171875
291	0.71044921875	243.797204384471	-0.004232177734375	0.7110595703125
292	0.712890625	243.82160438441	-0.00415771484375	0.713348388671875
293	0.71533203125	243.846004384348	-0.00420867919921875	0.7158203125
294	0.7177734375	243.870404384286	-0.00415802001953125	0.718292236328125
295	0.72021484375	243.894804384225	-0.00417236328125	0.72076416015625
296	0.72265625	243.919204384163	-0.0041650390625	0.72314453125
297	0.72509765625	243.943604384102	-0.00413299560546875	0.725555419921875
298	0.7275390625	243.96800438404	-0.00416961669921875	0.728118896484375
299	0.72998046875	243.992404383978	-0.004097900390625	0.730377197265625
300	0.732421875	244.016804383917	-0.0041583251953125	0.732940673828125
301	0.73486328125	244.041204383855	-0.00407562255859375	0.73529052734375
302	0.7373046875	244.065604383794	-0.0041326904296875	0.73779296875
303	0.73974609375	244.090004383732	-0.00406707763671875	0.74017333984375
304	0.7421875	244.11440438367	-0.00409027099609375	0.74261474609375
305	0.74462890625	244.138804383609	-0.00406524658203125	0.745147705078125
306	0.7470703125	244.163204383547	-0.0040411376953125	0.7474365234375
307	0.74951171875	244.187604383486	-0.00406097412109375	0.74920654296875
308	0.751953125	244.212004383424	-0.0039935302734375	0.7513427734375
309	0.75439453125	244.236404383362	-0.0040460205078125	0.7537841796875
310	0.7568359375	244.260804383301	-0.00395751953125	0.75592041015625
311	0.75927734375	244.285204383239	-0.00401702880859375	0.75897216796875
312	0.76171875	244.309604383178	-0.003935546875	0.7611083984375
313	0.76416015625	244.334004383116	-0.0039691162109375	0.762939453125
314	0.7666015625	244.358404383054	-0.0039239501953125	0.76629638671875
315	0.76904296875	244.382804382993	-0.00391265869140625	0.76812744140625
316	0.771484375	244.407204382931	-0.0039154052734375	0.77056884765625
317	0.77392578125	244.43160438287	-0.00385406494140625	0.7733154296875
318	0.7763671875	244.456004382808	-0.00389617919921875	0.77545166015625
319	0.77880859375	244.480404382746	-0.00380584716796875	0.77850341796875
320	0.78125	244.504804382685	-0.003863525390625	0.78033447265625
321	0.78369140625	244.529204382623	-0.00377166748046875	0.782470703125
322	0.7861328125	244.553604382562	-0.0038116455078125	0.78582763671875
323	0.78857421875	244.5780043825	-0.00374969482421875	0.7879638671875
324	0.791015625	244.602404382438	-0.0037493896484375	0.789794921875
325	0.79345703125	244.626804382377	-0.00373321533203125	0.79254150390625
326	0.7958984375	244.651204382315	-0.00368011474609375	0.79437255859375
327	0.79833984375	244.675604382253	-0.00370758056640625	0.7977294921875
328	0.80078125	244.700004382192	-0.00361785888671875	0.79986572265625
329	0.80322265625	244.72440438213	-0.0036676025390625	0.802001953125
330	0.8056640625	244.748804382069	-0.0035662841796875	0.804443359375
331	0.80810546875	244.773204382007	-0.0036065673828125	0.80718994140625
332	0.810546875	244.797604381945	-0.00352874755859375	0.809326171875
333	0.81298828125	244.822004381884	-0.00353515625	0.81207275390625
334	0.8154296875	244.846404381822	-0.00349761962890625	0.814208984375
335	0.81787109375	244.870804381761	-0.003450927734375	0.8172607421875
336	0.8203125	244.895204381699	-0.00345733642578125	0.8203125
337	0.82275390625	244.919604381637	-0.00337127685546875	0.821533203125
338	0.8251953125	244.944004381576	-0.0034063720703125	0.82427978515625
339	0.82763671875	244.968404381514	-0.00329925537109375	0.8270263671875
340	0.830078125	244.992804381453	-0.00333343505859375	0.8294677734375
341	0.83251953125	245.017204381391	-0.00324188232421875	0.83160400390625
342	0.8349609375	245.041604381329	-0.0032501220703125	0.833740234375
343	0.83740234375	245.066004381268	-0.00319122314453125	0.8367919921875
344	0.83984375	245.090404381206	-0.0031524658203125	0.838623046875
345	0.84228515625	245.114804381145	-0.0031378173828125	0.841064453125
346	0.8447265625	245.139204381083	-0.00305877685546875	0.8441162109375
347	0.84716796875	245.163604381021	-0.00307647705078125	0.84625244140625
348	0.849609375	245.18800438096	-0.00296966552734375	0.84869384765625
349	0.85205078125	245.212404380898	-0.0029937744140625	0.8514404296875
350	0.8544921875	245.236804380837	-0.002894287109375	0.8538818359375
351	0.85693359375	245.261204380775	-0.0029010009765625	0.85540771484375
352	0.859375	245.285604380713	-0.0028277587890625	0.8587646484375
353	0.86181640625	245.310004380652	-0.002794189453125	0.86090087890625
354	0.8642578125	245.33440438059	-0.00276123046875	0.86334228515625
355	0.86669921875	245.358804380529	-0.00269134521484375	0.86578369140625
356	0.869140625	245.383204380467	-0.00269134521484375	0.86822509765625
357	0.87158203125	245.407604380405	-0.0025885009765625	0.87066650390625
358	0.8740234375	245.432004380344	-0.0026007080078125	0.872802734375
359	0.87646484375	245.456404380282	-0.00249786376953125	0.875244140625
360	0.87890625	245.480804380221	-0.002501220703125	0.8782958984375
361	0.88134765625	245.505204380159	-0.00241455078125	0.88043212890625
362	0.8837890625	245.529604380097	-0.00238433837890625	0.8831787109375
363	0.88623046875	245.554004380036	-0.00233184814453125	0.8856201171875
364	0.888671875	245.578404379974	-0.0022686767578125	0.88775634765625
365	0.89111328125	245.602804379913	-0.00224822998046875	0.889892578125
366	0.8935546875	245.627204379851	-0.0021490478515625	0.8929443359375
367	0.89599609375	245.651604379789	-0.00214599609375	0.8953857421875
368	0.8984375	245.676004379728	-0.00204132080078125	0.897216796875
369	0.90087890625	245.700404379666	-0.00203582763671875	0.9002685546875
370	0.9033203125	245.724804379605	-0.0019390869140625	0.902099609375
371	0.90576171875	245.749204379543	-0.00190826416015625	0.9051513671875
372	0.908203125	245.773604379481	-0.00183990478515625	0.90728759765625
373	0.91064453125	245.79800437942	-0.00178009033203125	0.909423828125
374	0.9130859375	245.822404379358	-0.0017401123046875	0.91217041015625
375	0.91552734375	245.846804379296	-0.0016455078125	0.914306640625
376	0.91796875	245.871204379235	-0.00162506103515625	0.91705322265625
377	0.92041015625	245.895604379173	-0.0015216064453125	0.91949462890625
378	0.9228515625	245.920004379112	-0.001505126953125	0.92193603515625
379	0.92529296875	245.94440437905	-0.00140106201171875	0.924072265625
380	0.927734375	245.968804378988	-0.00136627197265625	0.9271240234375
381	0.93017578125	245.993204378927	-0.001285400390625	0.92864990234375
382	0.9326171875	246.017604378865	-0.00122802734375	0.9320068359375
383	0.93505859375	246.042004378804	-0.0011712646484375	0.9344482421875
384	0.9375	246.066404378742	-0.001080322265625	0.9368896484375
385	0.93994140625	246.09080437868	-0.00104400634765625	0.9393310546875
386	0.9423828125	246.115204378619	-0.000943603515625	0.941162109375
387	0.94482421875	246.139604378557	-0.00091461181640625	0.94390869140625
388	0.947265625	246.164004378496	-0.0008074951171875	0.9466552734375
389	0.94970703125	246.188404378434	-0.00076690673828125	0.94879150390625
390	0.9521484375	246.212804378372	-0.000677490234375	0.95123291015625
391	0.95458984375	246.237204378311	-0.00062103271484375	0.9539794921875
392	0.95703125	246.261604378249	-0.0005499267578125	0.95611572265625
393	0.95947265625	246.286004378188	-0.0004632568359375	0.958251953125
394	0.9619140625	246.310404378126	-0.00041217041015625	0.96099853515625
395	0.96435546875	246.334804378064	-0.000314300537109375	0.963134765625
396	0.966796875	246.359204378003	-0.00027264404296875	0.96588134765625
397	0.96923828125	246.383604377941	-0.000163177490234375	0.96832275390625
398	0.9716796875	246.40800437788	-0.00011358642578125	0.97015380859375
399	0.97412109375	246.432404377818	-1.8463134765625E-05	0.97320556640625
400	0.9765625	246.456804377756	4.2388916015625E-05	0.975341796875
401	0.97900390625	246.481204377695	0.00012506103515625	0.9783935546875
402	0.9814453125	246.505604377633	0.000212310791015625	0.98052978515625
403	0.98388671875	246.530004377572	0.000277801513671875	0.9832763671875
404	0.986328125	246.55440437751	0.000373870849609375	0.98541259765625
405	0.98876953125	246.578804377448	0.000429412841796875	0.987548828125
406	0.9912109375	246.603204377387	0.0005419921875	0.99090576171875
407	0.99365234375	246.627604377325	0.00060089111328125	0.99273681640625
408	0.99609375	246.652004377264	0.00070343017578125	0.994873046875
409	0.99853515625	246.676404377202	0.00076873779296875	0.9979248046875
410	1.0009765625	246.70080437714	0.0008636474609375	0.999755859375
411	1.00341796875	246.725204377079	0.0009515380859375	1.00250244140625
412	1.005859375	246.749604377017	0.0010308837890625	1.00433349609375
413	1.00830078125	246.774004376956	0.001126708984375	1.007080078125
414	1.0107421875	246.798404376894	0.0011962890625	1.009521484375
415	1.01318359375	246.822804376832	0.00131011962890625	1.011962890625
416	1.015625	246.847204376771	0.0013787841796875	1.0150146484375
417	1.01806640625	246.871604376709	0.0014849853515625	1.01715087890625
418	1.0205078125	246.896004376648	0.00155792236328125	1.01959228515625
419	1.02294921875	246.920404376586	0.0016619873046875	1.02203369140625
420	1.025390625	246.944804376524	0.00175201416015625	1.02447509765625
421	1.02783203125	246.969204376463	0.00184295654296875	1.02691650390625
422	1.0302734375	246.993604376401	0.001939697265625	1.02935791015625
423	1.03271484375	247.018004376339	0.002021484375	1.03179931640625
424	1.03515625	247.042404376278	0.00213623046875	1.03424072265625
425	1.03759765625	247.066804376216	0.0022161865234375	1.03668212890625
426	1.0400390625	247.091204376155	0.00232574462890625	1.03912353515625
427	1.04248046875	247.115604376093	0.002406005859375	1.0418701171875
428	1.044921875	247.140004376031	0.00251739501953125	1.04400634765625
429	1.04736328125	247.16440437597	0.00261260986328125	1.046142578125
430	1.0498046875	247.188804375908	0.00271270751953125	1.04827880859375
431	1.05224609375	247.213204375847	0.002811279296875	1.05133056640625
432	1.0546875	247.237604375785	0.00290496826171875	1.05377197265625
433	1.05712890625	247.262004375723	0.00302215576171875	1.05621337890625
434	1.0595703125	247.286404375662	0.00311187744140625	1.0589599609375
435	1.06201171875	247.3108043756	0.0032232666015625	1.060791015625
436	1.064453125	247.335204375539	0.00331085205078125	1.063232421875
437	1.06689453125	247.359604375477	0.00342681884765625	1.0662841796875
438	1.0693359375	247.384004375415	0.00352508544921875	1.06842041015625
439	1.07177734375	247.408404375354	0.00362884521484375	1.07025146484375
440	1.07421875	247.432804375292	0.0037249755859375	1.0736083984375
441	1.07666015625	247.457204375231	0.00382080078125	1.07574462890625
442	1.0791015625	247.481604375169	0.00392791748046875	1.0784912109375
443	1.08154296875	247.506004375107	0.0040130615234375	1.08062744140625
444	1.083984375	247.530404375046	0.00410614013671875	1.0833740234375
445	1.08642578125	247.554804374984	0.00418182373046875	1.0858154296875
446	1.0888671875	247.579204374923	0.00427093505859375	1.0882568359375
447	1.09130859375	247.603604374861	0.00434295654296875	1.090087890625
448	1.09375	247.628004374799	0.00441436767578125	1.09222412109375
449	1.09619140625	247.652404374738	0.00447662353515625	1.09527587890625
450	1.0986328125	247.676804374676	0.0045379638671875	1.097412109375
451	1.10107421875	247.701204374615	0.00459991455078125	1.099853515625
452	1.103515625	247.725604374553	0.00465057373046875	1.1029052734375
453	1.10595703125	247.750004374491	0.0047021484375	1.1053466796875
454	1.1083984375	247.77440437443	0.00474609375	1.107177734375
455	1.11083984375	247.798804374368	0.00479583740234375	1.109619140625
456	1.11328125	247.823204374307	0.0048370361328125	1.11236572265625
457	1.11572265625	247.847604374245	0.00487823486328125	1.11480712890625
458	1.1181640625	247.872004374183	0.00491455078125	1.116943359375
459	1.12060546875	247.896404374122	0.0049517822265625	1.119384765625
460	1.123046875	247.92080437406	0.004989013671875	1.12213134765625
461	1.12548828125	247.945204373999	0.00502166748046875	1.12396240234375
462	1.1279296875	247.969604373937	0.0050537109375	1.126708984375
463	1.13037109375	247.994004373875	0.00508331298828125	1.1297607421875
464	1.1328125	248.018404373814	0.005115966796875	1.13189697265625
465	1.13525390625	248.042804373752	0.00514404296875	1.1346435546875
466	1.1376953125	248.067204373691	0.00517242431640625	1.136474609375
467	1.14013671875	248.091604373629	0.00519805908203125	1.1395263671875
468	1.142578125	248.116004373567	0.00522491455078125	1.14105224609375
469	1.14501953125	248.140404373506	0.00525115966796875	1.14410400390625
470	1.1474609375	248.164804373444	0.00527557373046875	1.146240234375
471	1.14990234375	248.189204373382	0.005299072265625	1.14898681640625
472	1.15234375	248.213604373321	0.0053216552734375	1.15142822265625
473	1.15478515625	248.238004373259	0.0053460693359375	1.15325927734375
474	1.1572265625	248.262404373198	0.00536773681640625	1.15631103515625
475	1.15966796875	248.286804373136	0.005389404296875	1.158447265625
476	1.162109375	248.311204373074	0.00540924072265625	1.160888671875
477	1.16455078125	248.335604373013	0.00543060302734375	1.163330078125
478	1.1669921875	248.360004372951	0.00545135498046875	1.16607666015625
479	1.16943359375	248.38440437289	0.00547088623046875	1.1688232421875
480	1.171875	248.408804372828	0.005489501953125	1.17095947265625
481	1.17431640625	248.433204372766	0.00550811767578125	1.17340087890625
482	1.1767578125	248.457604372705	0.0055279541015625	1.175537109375
483	1.17919921875	248.482004372643	0.00554595947265625	1.17828369140625
484	1.181640625	248.506404372582	0.0055633544921875	1.1798095703125
485	1.18408203125	248.53080437252	0.00558013916015625	1.1834716796875
486	1.1865234375	248.555204372458	0.00559814453125	1.18499755859375
487	1.18896484375	248.579604372397	0.005615234375	1.18804931640625
488	1.19140625	248.604004372335	0.0056317138671875	1.19049072265625
489	1.19384765625	248.628404372274	0.00564727783203125	1.19232177734375
490	1.1962890625	248.652804372212	0.0056634521484375	1.195068359375
491	1.19873046875	248.67720437215	0.00568023681640625	1.19720458984375
492	1.201171875	248.701604372089	0.00569549560546875	1.1993408203125
493	1.19873046875	248.726004372027	0.00567779541015625	1.197509765625
494	1.1962890625	248.750404371966	0.00565948486328125	1.195068359375
495	1.19384765625	248.774804371904	0.00564208984375	1.19293212890625
496	1.19140625	248.799204371842	0.00562408447265625	1.190185546875
497	1.18896484375	248.823604371781	0.00560546875	1.1883544921875
498	1.1865234375	248.848004371719	0.0055859375	1.18560791015625
499	1.18408203125	248.872404371658	0.00556640625	1.18316650390625
500	1.181640625	248.896804371596	0.00554779052734375	1.18072509765625
501	1.17919921875	248.921204371534	0.00552734375	1.17828369140625
502	1.1767578125	248.945604371473	0.005506591796875	1.175537109375
503	1.17431640625	248.970004371411	0.005484619140625	1.173095703125
504	1.171875	248.99440437135	0.0054644775390625	1.17095947265625
505	1.16943359375	249.018804371288	0.00544219970703125	1.16851806640625
506	1.1669921875	249.043204371226	0.00541961669921875	1.16607666015625
507	1.16455078125	249.067604371165	0.00539581298828125	1.16363525390625
508	1.162109375	249.092004371103	0.00537200927734375	1.160888671875
509	1.15966796875	249.116404371042	0.00534912109375	1.1578369140625
510	1.1572265625	249.14080437098	0.00532318115234375	1.15631103515625
511	1.15478515625	249.165204370918	0.00529754638671875	1.15386962890625
512	1.15234375	249.189604370857	0.0052691650390625	1.1517333984375
513	1.14990234375	249.214004370795	0.005244140625	1.148681640625
514	1.1474609375	249.238404370734	0.00521514892578125	1.146240234375
515	1.14501953125	249.262804370672	0.0051861572265625	1.143798828125
516	1.142578125	249.28720437061	0.0051544189453125	1.141357421875
517	1.14013671875	249.311604370549	0.0051226806640625	1.13922119140625
518	1.1376953125	249.336004370487	0.00509185791015625	1.136474609375
519	1.13525390625	249.360404370425	0.00505615234375	1.13372802734375
520	1.1328125	249.384804370364	0.005020751953125	1.13189697265625
521	1.13037109375	249.409204370302	0.00498046875	1.12945556640625
522	1.1279296875	249.433604370241	0.004945068359375	1.126708984375
523	1.12548828125	249.458004370179	0.0049017333984375	1.124267578125
524	1.123046875	249.482404370117	0.004859619140625	1.12213134765625
525	1.12060546875	249.506804370056	0.00481048583984375	1.1199951171875
526	1.1181640625	249.531204369994	0.00476226806640625	1.11724853515625
527	1.11572265625	249.555604369933	0.00471282958984375	1.1151123046875
528	1.11328125	249.580004369871	0.00465423583984375	1.1126708984375
529	1.11083984375	249.604404369809	0.0045965576171875	1.10931396484375
530	1.1083984375	249.628804369748	0.0045257568359375	1.107177734375
531	1.10595703125	249.653204369686	0.00446624755859375	1.10504150390625
532	1.103515625	249.677604369625	0.0043853759765625	1.102294921875
533	1.10107421875	249.702004369563	0.00430999755859375	1.09954833984375
534	1.0986328125	249.726404369501	0.00421600341796875	1.09771728515625
535	1.09619140625	249.75080436944	0.004127197265625	1.09527587890625
536	1.09375	249.775204369378	0.00403289794921875	1.09344482421875
537	1.09130859375	249.799604369317	0.0039251708984375	1.09039306640625
538	1.0888671875	249.824004369255	0.0038226318359375	1.08795166015625
539	1.08642578125	249.848404369193	0.0036993408203125	1.08489990234375
540	1.083984375	249.872804369132	0.0036065673828125	1.0833740234375
541	1.08154296875	249.89720436907	0.00347930908203125	1.0809326171875
542	1.0791015625	249.921604369009	0.00337615966796875	1.07818603515625
543	1.07666015625	249.946004368947	0.0032464599609375	1.07574462890625
544	1.07421875	249.970404368885	0.00314178466796875	1.072998046875
545	1.07177734375	249.994804368824	0.0030291748046875	1.07086181640625
546	1.0693359375	250.019204368762	0.0029119873046875	1.0687255859375
547	1.06689453125	250.043604368701	0.00280426025390625	1.06597900390625
548	1.064453125	250.068004368639	0.002677001953125	1.06292724609375
549	1.06201171875	250.092404368577	0.00259002685546875	1.06109619140625
550	1.0595703125	250.116804368516	0.00246002197265625	1.058349609375
551	1.05712890625	250.141204368454	0.00236724853515625	1.05621337890625
552	1.0546875	250.165604368393	0.00223876953125	1.05377197265625
553	1.05224609375	250.190004368331	0.0021466064453125	1.05194091796875
554	1.0498046875	250.214404368269	0.00203582763671875	1.048583984375
555	1.04736328125	250.238804368208	0.0019293212890625	1.04644775390625
556	1.044921875	250.263204368146	0.0018280029296875	1.043701171875
557	1.04248046875	250.287604368085	0.00170928955078125	1.0418701171875
558	1.0400390625	250.312004368023	0.00163177490234375	1.03912353515625
559	1.03759765625	250.336404367961	0.00150604248046875	1.03668212890625
560	1.03515625	250.3608043679	0.001427001953125	1.033935546875
561	1.03271484375	250.385204367838	0.0013006591796875	1.03179931640625
562	1.0302734375	250.409604367777	0.00122467041015625	1.02935791015625
563	1.02783203125	250.434004367715	0.00111572265625	1.0260009765625
564	1.025390625	250.458404367653	0.0010223388671875	1.02386474609375
565	1.02294921875	250.482804367592	0.000927734375	1.02203369140625
566	1.0205078125	250.50720436753	0.00081878662109375	1.01959228515625
567	1.01806640625	250.531604367469	0.00075042724609375	1.016845703125
568	1.015625	250.556004367407	0.00063079833984375	1.01470947265625
569	1.01318359375	250.580404367345	0.00056610107421875	1.011962890625
570	1.0107421875	250.604804367284	0.00044342041015625	1.00982666015625
571	1.00830078125	250.629204367222	0.000383392333984375	1.007080078125
572	1.005859375	250.65360436716	0.000277252197265625	1.0052490234375
573	1.00341796875	250.678004367099	0.000199981689453125	1.00250244140625
574	1.0009765625	250.702404367037	0.00011004638671875	1.00006103515625
575	0.99853515625	250.726804366976	1.4007568359375E-05	0.99822998046875
576	0.99609375	250.751204366914	-4.5654296875E-05	0.99517822265625
577	0.99365234375	250.775604366852	-0.00015740966796875	0.992431640625
578	0.9912109375	250.800004366791	-0.00020892333984375	0.99029541015625
579	0.98876953125	250.824404366729	-0.000327423095703125	0.9881591796875
580	0.986328125	250.848804366668	-0.000370513916015625	0.9857177734375
581	0.98388671875	250.873204366606	-0.00047576904296875	0.98297119140625
582	0.9814453125	250.897604366544	-0.00053497314453125	0.98052978515625
583	0.97900390625	250.922004366483	-0.00062408447265625	0.977783203125
584	0.9765625	250.946404366421	-0.000704345703125	0.975341796875
585	0.97412109375	250.97080436636	-0.00075958251953125	0.97320556640625
586	0.9716796875	250.995204366298	-0.0008636474609375	0.970458984375
587	0.96923828125	251.019604366236	-0.0009033203125	0.9686279296875
588	0.966796875	251.044004366175	-0.001019287109375	0.965576171875
589	0.96435546875	251.068404366113	-0.00104461669921875	0.963134765625
590	0.9619140625	251.092804366052	-0.00115325927734375	0.9613037109375
591	0.95947265625	251.11720436599	-0.00119415283203125	0.9588623046875
592	0.95703125	251.141604365928	-0.00128387451171875	0.95672607421875
593	0.95458984375	251.166004365867	-0.00134765625	0.9539794921875
594	0.9521484375	251.190404365805	-0.00140045166015625	0.95123291015625
595	0.94970703125	251.214804365744	-0.00149261474609375	0.9490966796875
596	0.947265625	251.239204365682	-0.001522216796875	0.9466552734375
597	0.94482421875	251.26360436562	-0.00163299560546875	0.94390869140625
598	0.9423828125	251.288004365559	-0.0016424560546875	0.941162109375
599	0.93994140625	251.312404365497	-0.00175201416015625	0.9393310546875
600	0.9375	251.336804365436	-0.0017730712890625	0.93658447265625
601	0.93505859375	251.361204365374	-0.0018646240234375	0.93414306640625
602	0.9326171875	251.385604365312	-0.00190826416015625	0.931396484375
603	0.93017578125	251.410004365251	-0.00196044921875	0.9295654296875
604	0.927734375	251.434404365189	-0.00203857421875	0.926513671875
605	0.92529296875	251.458804365128	-0.002059326171875	0.924072265625
606	0.9228515625	251.483204365066	-0.00216278076171875	0.921630859375
607	0.92041015625	251.507604365004	-0.00215728759765625	0.91949462890625
608	0.91796875	251.532004364943	-0.00226654052734375	0.9173583984375
609	0.91552734375	251.556404364881	-0.00226776123046875	0.91461181640625
610	0.9130859375	251.58080436482	-0.0023614501953125	0.911865234375
611	0.91064453125	251.605204364758	-0.002384033203125	0.909423828125
612	0.908203125	251.629604364696	-0.00243896484375	0.90728759765625
613	0.90576171875	251.654004364635	-0.002498779296875	0.90484619140625
614	0.9033203125	251.678404364573	-0.0025164794921875	0.902099609375
615	0.90087890625	251.702804364512	-0.00261077880859375	0.89996337890625
616	0.8984375	251.72720436445	-0.00259552001953125	0.89691162109375
617	0.89599609375	251.751604364388	-0.002703857421875	0.894775390625
618	0.8935546875	251.776004364327	-0.00268707275390625	0.8929443359375
619	0.89111328125	251.800404364265	-0.00278533935546875	0.8905029296875
620	0.888671875	251.824804364203	-0.0027874755859375	0.887451171875
621	0.88623046875	251.849204364142	-0.00284759521484375	0.88531494140625
622	0.8837890625	251.87360436408	-0.00289093017578125	0.8831787109375
623	0.88134765625	251.898004364019	-0.0029095458984375	0.88043212890625
624	0.87890625	251.922404363957	-0.00299285888671875	0.8782958984375
625	0.87646484375	251.946804363895	-0.0029705810546875	0.87554931640625
626	0.8740234375	251.971204363834	-0.00307586669921875	0.872802734375
627	0.87158203125	251.995604363772	-0.0030438232421875	0.87066650390625
628	0.869140625	252.020004363711	-0.003145751953125	0.86822509765625
629	0.86669921875	252.044404363649	-0.00312744140625	0.86578369140625
630	0.8642578125	252.068804363587	-0.00319549560546875	0.863037109375
631	0.86181640625	252.093204363526	-0.0032183837890625	0.86090087890625
632	0.859375	252.117604363464	-0.003240966796875	0.8587646484375
633	0.85693359375	252.142004363403	-0.00330841064453125	0.855712890625
634	0.8544921875	252.166404363341	-0.003282470703125	0.85357666015625
635	0.85205078125	252.190804363279	-0.00338134765625	0.850830078125
636	0.849609375	252.215204363218	-0.00333648681640625	0.84869384765625
637	0.84716796875	252.239604363156	-0.0034375	0.84686279296875
638	0.8447265625	252.264004363095	-0.00339996337890625	0.84442138671875
639	0.84228515625	252.288404363033	-0.00347320556640625	0.84136962890625
640	0.83984375	252.312804362971	-0.00347381591796875	0.83892822265625
641	0.83740234375	252.33720436291	-0.0035009765625	0.8367919921875
642	0.8349609375	252.361604362848	-0.00354949951171875	0.83404541015625
643	0.83251953125	252.386004362787	-0.00352569580078125	0.83221435546875
644	0.830078125	252.410404362725	-0.00361236572265625	0.8294677734375
645	0.82763671875	252.434804362663	-0.0035614013671875	0.82672119140625
646	0.8251953125	252.459204362602	-0.00366119384765625	0.82427978515625
647	0.82275390625	252.48360436254	-0.0036102294921875	0.8221435546875
648	0.8203125	252.508004362479	-0.003690185546875	0.81939697265625
649	0.81787109375	252.532404362417	-0.0036724853515625	0.816650390625
650	0.8154296875	252.556804362355	-0.00370849609375	0.81390380859375
651	0.81298828125	252.581204362294	-0.003739013671875	0.811767578125
652	0.810546875	252.605604362232	-0.00372344970703125	0.80902099609375
653	0.80810546875	252.630004362171	-0.003798828125	0.8074951171875
654	0.8056640625	252.654404362109	-0.00374786376953125	0.8050537109375
655	0.80322265625	252.678804362047	-0.003843994140625	0.80230712890625
656	0.80078125	252.703204361986	-0.0037860107421875	0.799560546875
657	0.79833984375	252.727604361924	-0.00386993408203125	0.7977294921875
658	0.7958984375	252.752004361863	-0.00383819580078125	0.79498291015625
659	0.79345703125	252.776404361801	-0.00388336181640625	0.79193115234375
660	0.791015625	252.800804361739	-0.00389739990234375	0.79010009765625
661	0.78857421875	252.825204361678	-0.003890380859375	0.787353515625
662	0.7861328125	252.849604361616	-0.0039520263671875	0.78521728515625
663	0.78369140625	252.874004361555	-0.00390472412109375	0.78277587890625
664	0.78125	252.898404361493	-0.00399322509765625	0.780029296875
665	0.77880859375	252.922804361431	-0.00392913818359375	0.7781982421875
666	0.7763671875	252.94720436137	-0.004013671875	0.7757568359375
667	0.77392578125	252.971604361308	-0.0039691162109375	0.772705078125
668	0.771484375	252.996004361246	-0.00402130126953125	0.7708740234375
669	0.76904296875	253.020404361185	-0.0040179443359375	0.7684326171875
670	0.7666015625	253.044804361123	-0.00401885986328125	0.765380859375
671	0.76416015625	253.069204361062	-0.0040631103515625	0.76416015625
672	0.76171875	253.093604361	-0.00402099609375	0.7611083984375
673	0.75927734375	253.118004360938	-0.00409759521484375	0.75836181640625
674	0.7568359375	253.142404360877	-0.00403289794921875	0.75592041015625
675	0.75439453125	253.166804360815	-0.00411529541015625	0.75347900390625
676	0.751953125	253.191204360754	-0.00406097412109375	0.75103759765625
677	0.74951171875	253.215604360692	-0.00411865234375	0.7489013671875
678	0.7470703125	253.24000436063	-0.00410125732421875	0.74749755859375
679	0.74462890625	253.264404360569	-0.00411102294921875	0.74493408203125
680	0.7421875	253.288804360507	-0.0041424560546875	0.74267578125
681	0.73974609375	253.313204360446	-0.00410736083984375	0.74017333984375
682	0.7373046875	253.337604360384	-0.0041766357421875	0.737823486328125
683	0.73486328125	253.362004360322	-0.00411407470703125	0.735260009765625
684	0.732421875	253.386404360261	-0.00419464111328125	0.732940673828125
685	0.72998046875	253.410804360199	-0.00413665771484375	0.73040771484375
686	0.7275390625	253.435204360138	-0.00419891357421875	0.72802734375
687	0.72509765625	253.459604360076	-0.00417205810546875	0.725616455078125
688	0.72265625	253.484004360014	-0.0041925048828125	0.723114013671875
689	0.72021484375	253.508404359953	-0.00421173095703125	0.72076416015625
690	0.7177734375	253.532804359891	-0.0041864013671875	0.71826171875
691	0.71533203125	253.55720435983	-0.0042462158203125	0.71588134765625
692	0.712890625	253.581604359768	-0.00418853759765625	0.71331787109375
693	0.71044921875	253.606004359706	-0.00426544189453125	0.71099853515625
694	0.7080078125	253.630404359645	-0.0042047119140625	0.708465576171875
695	0.70556640625	253.654804359583	-0.00427001953125	0.7060546875
696	0.703125	253.679204359522	-0.00423370361328125	0.703643798828125
697	0.70068359375	253.70360435946	-0.00426239013671875	0.701171875
698	0.6982421875	253.728004359398	-0.004268798828125	0.698822021484375
699	0.69580078125	253.752404359337	-0.00425262451171875	0.696319580078125
700	0.693359375	253.776804359275	-0.00430084228515625	0.694000244140625
701	0.69091796875	253.801204359214	-0.00424774169921875	0.69146728515625
702	0.6884765625	253.825604359152	-0.0043182373046875	0.68914794921875
703	0.68603515625	253.85000435909	-0.0042559814453125	0.68658447265625
704	0.68359375	253.874404359029	-0.00432220458984375	0.684234619140625
705	0.68115234375	253.898804358967	-0.00427764892578125	0.68170166015625
706	0.6787109375	253.923204358906	-0.004312744140625	0.67926025390625
707	0.67626953125	253.947604358844	-0.0043072509765625	0.6768798828125
708	0.673828125	253.972004358782	-0.00429931640625	0.67437744140625
709	0.67138671875	253.996404358721	-0.0043359375	0.672088623046875
710	0.6689453125	254.020804358659	-0.0042889404296875	0.6695556640625
711	0.66650390625	254.045204358598	-0.00435394287109375	0.667144775390625
712	0.6640625	254.069604358536	-0.0042919921875	0.664703369140625
713	0.66162109375	254.094004358474	-0.0043597412109375	0.662200927734375
714	0.6591796875	254.118404358413	-0.00430938720703125	0.6597900390625
715	0.65673828125	254.142804358351	-0.0043524169921875	0.65728759765625
716	0.654296875	254.167204358289	-0.00433685302734375	0.6549072265625
717	0.65185546875	254.191604358228	-0.00433929443359375	0.65240478515625
718	0.6494140625	254.216004358166	-0.004366455078125	0.650115966796875
719	0.64697265625	254.240404358105	-0.0043280029296875	0.647613525390625
720	0.64453125	254.264804358043	-0.00438720703125	0.64520263671875
721	0.64208984375	254.289204357981	-0.00432769775390625	0.6427001953125
722	0.6396484375	254.31360435792	-0.00439544677734375	0.64031982421875
723	0.63720703125	254.338004357858	-0.0043414306640625	0.6378173828125
724	0.634765625	254.362404357797	-0.0043902587890625	0.635406494140625
725	0.63232421875	254.386804357735	-0.0043658447265625	0.63299560546875
726	0.6298828125	254.411204357673	-0.0043768310546875	0.63055419921875
727	0.62744140625	254.435604357612	-0.00439453125	0.628143310546875
728	0.625	254.46000435755	-0.0043646240234375	0.6256103515625
729	0.62255859375	254.484404357489	-0.00441650390625	0.623291015625
730	0.6201171875	254.508804357427	-0.00436065673828125	0.620697021484375
731	0.61767578125	254.533204357365	-0.00442596435546875	0.618316650390625
732	0.615234375	254.557604357304	-0.00436920166015625	0.6158447265625
733	0.61279296875	254.582004357242	-0.00442169189453125	0.613433837890625
734	0.6103515625	254.606404357181	-0.0043896484375	0.610992431640625
735	0.60791015625	254.630804357119	-0.00440887451171875	0.608551025390625
736	0.60546875	254.655204357057	-0.00441650390625	0.606201171875
737	0.60302734375	254.679604356996	-0.00439483642578125	0.6036376953125
738	0.6005859375	254.704004356934	-0.00443878173828125	0.601287841796875
739	0.59814453125	254.728404356873	-0.0043865966796875	0.59881591796875
740	0.595703125	254.752804356811	-0.004449462890625	0.596343994140625
741	0.59326171875	254.777204356749	-0.004390869140625	0.59393310546875
742	0.5908203125	254.801604356688	-0.0044476318359375	0.59149169921875
743	0.58837890625	254.826004356626	-0.0044085693359375	0.589080810546875
744	0.5859375	254.850404356565	-0.004434814453125	0.586578369140625
745	0.58349609375	254.874804356503	-0.0044329833984375	0.584197998046875
746	0.5810546875	254.899204356441	-0.0044189453125	0.581695556640625
747	0.57861328125	254.92360435638	-0.00445556640625	0.579254150390625
748	0.576171875	254.948004356318	-0.00440826416015625	0.576812744140625
749	0.57373046875	254.972404356257	-0.0044683837890625	0.574462890625
750	0.5712890625	254.996804356195	-0.0044091796875	0.5718994140625
751	0.56884765625	255.021204356133	-0.00446807861328125	0.569549560546875
752	0.56640625	255.045604356072	-0.00442352294921875	0.56707763671875
753	0.56396484375	255.07000435601	-0.00445709228515625	0.564666748046875
754	0.5615234375	255.094404355949	-0.0044464111328125	0.562225341796875
755	0.55908203125	255.118804355887	-0.00444122314453125	0.559722900390625
756	0.556640625	255.143204355825	-0.0044696044921875	0.557373046875
757	0.55419921875	255.167604355764	-0.0044293212890625	0.554901123046875
758	0.5517578125	255.192004355702	-0.00448486328125	0.552490234375
759	0.54931640625	255.216404355641	-0.00442657470703125	0.550018310546875
760	0.546875	255.240804355579	-0.00448699951171875	0.547576904296875
761	0.54443359375	255.265204355517	-0.0044384765625	0.545166015625
762	0.5419921875	255.289604355456	-0.00447845458984375	0.542724609375
763	0.53955078125	255.314004355394	-0.004459228515625	0.540283203125
764	0.537109375	255.338404355333	-0.0044635009765625	0.53778076171875
765	0.53466796875	255.362804355271	-0.0044830322265625	0.53546142578125
766	0.5322265625	255.387204355209	-0.00444976806640625	0.532928466796875
767	0.52978515625	255.411604355148	-0.004500732421875	0.530517578125
768	0.52734375	255.436004355086	-0.0044451904296875	0.528045654296875
769	0.52490234375	255.460404355024	-0.00450592041015625	0.525634765625
770	0.5224609375	255.484804354963	-0.004453125	0.523193359375
771	0.52001953125	255.509204354901	-0.00449859619140625	0.520751953125
772	0.517578125	255.53360435484	-0.00447235107421875	0.51824951171875
773	0.51513671875	255.558004354778	-0.004483642578125	0.515838623046875
774	0.5126953125	255.582404354716	-0.00449462890625	0.513519287109375
775	0.51025390625	255.606804354655	-0.00446868896484375	0.510955810546875
776	0.5078125	255.631204354593	-0.004512939453125	0.50860595703125
777	0.50537109375	255.655604354532	-0.00446014404296875	0.506011962890625
778	0.5029296875	255.68000435447	-0.0045184326171875	0.503753662109375
779	0.50048828125	255.704404354408	-0.004462890625	0.501129150390625
780	0.498046875	255.728804354347	-0.00451202392578125	0.498809814453125
781	0.49560546875	255.753204354285	-0.0044769287109375	0.496368408203125
782	0.4931640625	255.777604354224	-0.004495849609375	0.493865966796875
783	0.49072265625	255.802004354162	-0.0044970703125	0.491485595703125
784	0.48828125	255.8264043541	-0.00447784423828125	0.488922119140625
785	0.48583984375	255.850804354039	-0.00451507568359375	0.486572265625
786	0.4833984375	255.875204353977	-0.00446563720703125	0.484100341796875
787	0.48095703125	255.899604353916	-0.00452301025390625	0.48175048828125
788	0.478515625	255.924004353854	-0.00446563720703125	0.479217529296875
789	0.47607421875	255.948404353792	-0.0045184326171875	0.47686767578125
790	0.4736328125	255.972804353731	-0.0044781494140625	0.474365234375
791	0.47119140625	255.997204353669	-0.0045050048828125	0.471893310546875
792	0.46875	256.021604353608	-0.0044989013671875	0.469451904296875
793	0.46630859375	256.046004353546	-0.0044879150390625	0.46697998046875
794	0.4638671875	256.070404353484	-0.00451995849609375	0.46466064453125
795	0.46142578125	256.094804353423	-0.0044769287109375	0.462127685546875
796	0.458984375	256.119204353361	-0.00453216552734375	0.4598388671875
797	0.45654296875	256.1436043533	-0.0044757080078125	0.457305908203125
798	0.4541015625	256.168004353238	-0.004532470703125	0.454864501953125
799	0.45166015625	256.192404353176	-0.0044879150390625	0.45245361328125
800	0.44921875	256.216804353115	-0.004521484375	0.449951171875
801	0.44677734375	256.241204353053	-0.00450775146484375	0.44757080078125
802	0.4443359375	256.265604352992	-0.004505615234375	0.445037841796875
803	0.44189453125	256.29000435293	-0.00452972412109375	0.442718505859375
804	0.439453125	256.314404352868	-0.00449249267578125	0.440216064453125
805	0.43701171875	256.338804352807	-0.0045440673828125	0.4378662109375
806	0.4345703125	256.363204352745	-0.00448883056640625	0.435333251953125
807	0.43212890625	256.387604352684	-0.0045465087890625	0.432891845703125
808	0.4296875	256.412004352622	-0.0044970703125	0.430450439453125
809	0.42724609375	256.43640435256	-0.0045367431640625	0.42803955078125
810	0.4248046875	256.460804352499	-0.00451507568359375	0.425628662109375
811	0.42236328125	256.485204352437	-0.004520263671875	0.423095703125
812	0.419921875	256.509604352376	-0.0045367431640625	0.420745849609375
813	0.41748046875	256.534004352314	-0.0045050048828125	0.418212890625
814	0.4150390625	256.558404352252	-0.0045513916015625	0.4158935546875
815	0.41259765625	256.582804352191	-0.0044976806640625	0.413360595703125
816	0.41015625	256.607204352129	-0.0045550537109375	0.41094970703125
817	0.40771484375	256.631604352067	-0.0045025634765625	0.408477783203125
818	0.4052734375	256.656004352006	-0.0045465087890625	0.40606689453125
819	0.40283203125	256.680404351944	-0.004517822265625	0.40362548828125
820	0.400390625	256.704804351883	-0.00453033447265625	0.401153564453125
821	0.39794921875	256.729204351821	-0.00453826904296875	0.398773193359375
822	0.3955078125	256.753604351759	-0.0045135498046875	0.396240234375
823	0.39306640625	256.778004351698	-0.004554443359375	0.393890380859375
824	0.390625	256.802404351636	-0.00450408935546875	0.391387939453125
825	0.38818359375	256.826804351575	-0.00456085205078125	0.389007568359375
826	0.3857421875	256.851204351513	-0.00450653076171875	0.386505126953125
827	0.38330078125	256.875604351451	-0.0045550537109375	0.38409423828125
828	0.380859375	256.90000435139	-0.00451995849609375	0.381683349609375
829	0.37841796875	256.924404351328	-0.004539794921875	0.379180908203125
830	0.3759765625	256.948804351267	-0.004539794921875	0.3768310546875
831	0.37353515625	256.973204351205	-0.0045233154296875	0.37432861328125
832	0.37109375	256.997604351143	-0.00455902099609375	0.371917724609375
833	0.36865234375	257.022004351082	-0.00451263427734375	0.369415283203125
834	0.3662109375	257.04640435102	-0.0045684814453125	0.3670654296875
835	0.36376953125	257.070804350959	-0.004512939453125	0.364532470703125
836	0.361328125	257.095204350897	-0.0045648193359375	0.36212158203125
837	0.35888671875	257.119604350835	-0.00452484130859375	0.359649658203125
838	0.3564453125	257.144004350774	-0.004552001953125	0.357269287109375
839	0.35400390625	257.168404350712	-0.0045452880859375	0.354888916015625
840	0.3515625	257.192804350651	-0.00453582763671875	0.352386474609375
841	0.34912109375	257.217204350589	-0.0045648193359375	0.350006103515625
842	0.3466796875	257.241604350527	-0.0045233154296875	0.34747314453125
843	0.34423828125	257.266004350466	-0.00457550048828125	0.345123291015625
844	0.341796875	257.290404350404	-0.00451995849609375	0.34259033203125
845	0.33935546875	257.314804350343	-0.0045733642578125	0.3402099609375
846	0.3369140625	257.339204350281	-0.0045281982421875	0.337738037109375
847	0.33447265625	257.363604350219	-0.0045611572265625	0.335235595703125
848	0.33203125	257.388004350158	-0.00454559326171875	0.332916259765625
849	0.32958984375	257.412404350096	-0.00454315185546875	0.33038330078125
850	0.3271484375	257.436804350035	-0.004564208984375	0.327972412109375
851	0.32470703125	257.461204349973	-0.0045281982421875	0.32550048828125
852	0.322265625	257.485604349911	-0.00457672119140625	0.3231201171875
853	0.31982421875	257.51000434985	-0.00452117919921875	0.320587158203125
854	0.3173828125	257.534404349788	-0.00457672119140625	0.318206787109375
855	0.31494140625	257.558804349727	-0.004527587890625	0.315765380859375
856	0.3125	257.583204349665	-0.004566650390625	0.313262939453125
857	0.31005859375	257.607604349603	-0.0045440673828125	0.3109130859375
858	0.3076171875	257.632004349542	-0.004549560546875	0.308349609375
859	0.30517578125	257.65640434948	-0.00456298828125	0.305999755859375
860	0.302734375	257.680804349419	-0.0045330810546875	0.303497314453125
861	0.30029296875	257.705204349357	-0.00457794189453125	0.3011474609375
862	0.2978515625	257.729604349295	-0.004525146484375	0.298614501953125
863	0.29541015625	257.754004349234	-0.00458099365234375	0.29632568359375
864	0.29296875	257.778404349172	-0.0045294189453125	0.293792724609375
865	0.29052734375	257.80280434911	-0.0045733642578125	0.2913818359375
866	0.2880859375	257.827204349049	-0.00454437255859375	0.288909912109375
867	0.28564453125	257.851604348987	-0.00455810546875	0.28643798828125
868	0.283203125	257.876004348926	-0.0045648193359375	0.284149169921875
869	0.28076171875	257.900404348864	-0.00454193115234375	0.28155517578125
870	0.2783203125	257.924804348802	-0.0045819091796875	0.2791748046875
871	0.27587890625	257.949204348741	-0.0045330810546875	0.27667236328125
872	0.2734375	257.973604348679	-0.00458831787109375	0.274322509765625
873	0.27099609375	257.998004348618	-0.00453460693359375	0.271820068359375
874	0.2685546875	258.022404348556	-0.00458282470703125	0.2694091796875
875	0.26611328125	258.046804348494	-0.00454742431640625	0.266937255859375
876	0.263671875	258.071204348433	-0.00456787109375	0.264495849609375
877	0.26123046875	258.095604348371	-0.004566650390625	0.2620849609375
878	0.2587890625	258.12000434831	-0.00455078125	0.259613037109375
879	0.25634765625	258.144404348248	-0.00458404541015625	0.257232666015625
880	0.25390625	258.168804348186	-0.00453887939453125	0.254730224609375
881	0.25146484375	258.193204348125	-0.00459136962890625	0.25238037109375
882	0.2490234375	258.217604348063	-0.0045361328125	0.2498779296875
883	0.24658203125	258.242004348002	-0.00458740234375	0.247406005859375
884	0.244140625	258.26640434794	-0.0045465087890625	0.244964599609375
885	0.24169921875	258.290804347878	-0.00457366943359375	0.2425537109375
886	0.2392578125	258.315204347817	-0.0045648193359375	0.240142822265625
887	0.23681640625	258.339604347755	-0.004556884765625	0.23760986328125
888	0.234375	258.364004347694	-0.0045831298828125	0.235321044921875
889	0.23193359375	258.388404347632	-0.00454254150390625	0.23272705078125
890	0.2294921875	258.41280434757	-0.00459320068359375	0.2303466796875
891	0.22705078125	258.437204347509	-0.00453826904296875	0.2279052734375
892	0.224609375	258.461604347447	-0.00459197998046875	0.2254638671875
893	0.22216796875	258.486004347386	-0.0045465087890625	0.2230224609375
894	0.2197265625	258.510404347324	-0.00458038330078125	0.2205810546875
895	0.21728515625	258.534804347262	-0.004564208984375	0.218170166015625
896	0.21484375	258.559204347201	-0.00456390380859375	0.21563720703125
897	0.21240234375	258.583604347139	-0.00458404541015625	0.21331787109375
898	0.2099609375	258.608004347078	-0.00454986572265625	0.21075439453125
899	0.20751953125	258.632404347016	-0.00459716796875	0.20843505859375
900	0.205078125	258.656804346954	-0.00454437255859375	0.205902099609375
901	0.20263671875	258.681204346893	-0.00459991455078125	0.203460693359375
902	0.2001953125	258.705604346831	-0.00455169677734375	0.2010498046875
903	0.19775390625	258.73000434677	-0.00459075927734375	0.1986083984375
904	0.1953125	258.754404346708	-0.0045672607421875	0.19622802734375
905	0.19287109375	258.778804346646	-0.004573974609375	0.1937255859375
906	0.1904296875	258.803204346585	-0.00458648681640625	0.19134521484375
907	0.18798828125	258.827604346523	-0.00455780029296875	0.18878173828125
908	0.185546875	258.852004346462	-0.0046002197265625	0.1865234375
909	0.18310546875	258.8764043464	-0.00454864501953125	0.1839599609375
910	0.1806640625	258.900804346338	-0.0046026611328125	0.181549072265625
911	0.17822265625	258.925204346277	-0.00455078125	0.1790771484375
912	0.17578125	258.949604346215	-0.00459381103515625	0.176666259765625
913	0.17333984375	258.974004346153	-0.00456329345703125	0.17413330078125
914	0.1708984375	258.998404346092	-0.00457733154296875	0.171722412109375
915	0.16845703125	259.02280434603	-0.00458160400390625	0.16937255859375
916	0.166015625	259.047204345969	-0.0045599365234375	0.166839599609375
917	0.16357421875	259.071604345907	-0.00459686279296875	0.164520263671875
918	0.1611328125	259.096004345845	-0.00454833984375	0.162017822265625
919	0.15869140625	259.120404345784	-0.00460235595703125	0.159576416015625
920	0.15625	259.144804345722	-0.00454864501953125	0.1571044921875
921	0.15380859375	259.169204345661	-0.00459686279296875	0.154754638671875
922	0.1513671875	259.193604345599	-0.00456085205078125	0.152313232421875
923	0.14892578125	259.218004345537	-0.00458221435546875	0.1497802734375
924	0.146484375	259.242404345476	-0.004580078125	0.147369384765625
925	0.14404296875	259.266804345414	-0.00456573486328125	0.1448974609375
926	0.1416015625	259.291204345353	-0.00459747314453125	0.142578125
927	0.13916015625	259.315604345291	-0.0045538330078125	0.1400146484375
928	0.13671875	259.340004345229	-0.00460693359375	0.137603759765625
929	0.13427734375	259.364404345168	-0.00455291748046875	0.135162353515625
930	0.1318359375	259.388804345106	-0.0046044921875	0.13275146484375
931	0.12939453125	259.413204345045	-0.00456451416015625	0.13031005859375
932	0.126953125	259.437604344983	-0.00459320068359375	0.1278076171875
933	0.12451171875	259.462004344921	-0.004583740234375	0.125396728515625
934	0.1220703125	259.48640434486	-0.0045770263671875	0.12298583984375
935	0.11962890625	259.510804344798	-0.00460296630859375	0.12054443359375
936	0.1171875	259.535204344737	-0.0045648193359375	0.118072509765625
937	0.11474609375	259.559604344675	-0.0046142578125	0.115692138671875
938	0.1123046875	259.584004344613	-0.0045611572265625	0.113189697265625
939	0.10986328125	259.608404344552	-0.00461334228515625	0.110748291015625
940	0.107421875	259.63280434449	-0.00456756591796875	0.108367919921875
941	0.10498046875	259.657204344429	-0.004600830078125	0.1058349609375
942	0.1025390625	259.681604344367	-0.00458282470703125	0.103515625
943	0.10009765625	259.706004344305	-0.00458251953125	0.10101318359375
944	0.09765625	259.730404344244	-0.00459991455078125	0.0986328125
945	0.09521484375	259.754804344182	-0.00456695556640625	0.09600830078125
946	0.0927734375	259.779204344121	-0.00461212158203125	0.09368896484375
947	0.09033203125	259.803604344059	-0.004559326171875	0.09130859375
948	0.087890625	259.828004343997	-0.00461212158203125	0.08880615234375
949	0.08544921875	259.852404343936	-0.00456268310546875	0.086395263671875
950	0.0830078125	259.876804343874	-0.0046014404296875	0.0838623046875
951	0.08056640625	259.901204343813	-0.00457672119140625	0.08154296875
952	0.078125	259.925604343751	-0.00458404541015625	0.0789794921875
953	0.07568359375	259.950004343689	-0.0045947265625	0.07659912109375
954	0.0732421875	259.974404343628	-0.00456787109375	0.0740966796875
955	0.07080078125	259.998804343566	-0.0046099853515625	0.071746826171875
956	0.068359375	260.023204343505	-0.00455963134765625	0.0692138671875
957	0.06591796875	260.047604343443	-0.0046142578125	0.06689453125
958	0.0634765625	260.072004343381	-0.00456268310546875	0.064361572265625
959	0.06103515625	260.09640434332	-0.00460784912109375	0.061981201171875
960	0.05859375	260.120804343258	-0.00457763671875	0.05950927734375
961	0.05615234375	260.145204343196	-0.00459381103515625	0.05706787109375
962	0.0537109375	260.169604343135	-0.0045977783203125	0.0546875
963	0.05126953125	260.194004343073	-0.0045782470703125	0.05218505859375
964	0.048828125	260.218404343012	-0.00461517333984375	0.049835205078125
965	0.04638671875	260.24280434295	-0.00456878662109375	0.0465972900390625
966	0.0439453125	260.267204342888	-0.0046221923828125	0.0442413330078125
967	0.04150390625	260.291604342827	-0.00457000732421875	0.041705322265625
968	0.0390625	260.316004342765	-0.004619140625	0.039312744140625
969	0.03662109375	260.340404342704	-0.00458251953125	0.03682861328125
970	0.0341796875	260.364804342642	-0.0046063232421875	0.0344146728515625
971	0.03173828125	260.38920434258	-0.00460113525390625	0.0319732666015625
972	0.029296875	260.413604342519	-0.00458953857421875	0.0294891357421875
973	0.02685546875	260.438004342457	-0.004617919921875	0.027142333984375
974	0.0244140625	260.462404342396	-0.0045758056640625	0.024609375
975	0.02197265625	260.486804342334	-0.00462615966796875	0.022265625
976	0.01953125	260.511204342272	-0.00457244873046875	0.019720458984375
977	0.01708984375	260.535604342211	-0.00462310791015625	0.017352294921875
978	0.0146484375	260.560004342149	-0.00458038330078125	0.01488037109375
979	0.01220703125	260.584404342088	-0.004609375	0.0124420166015625
980	0.009765625	260.608804342026	-0.004595947265625	0.0100006103515625
981	0.00732421875	260.633204341964	-0.00459075927734375	0.00751953125
982	0.0048828125	260.657604341903	-0.00461273193359375	0.0051727294921875
983	0.00244140625	260.682004341841	-0.0045758056640625	0.0026275634765625
984	0	260.70640434178	-0.004622802734375	0.000280761718749994
985	0.00244140625	260.730804341718	-0.00456817626953125	0.00263671875
986	0.0048828125	260.755204341656	-0.0046197509765625	0.005145263671875
987	0.00732421875	260.779604341595	-0.0045721435546875	0.00755615234375
988	0.009765625	260.804004341533	-0.0046063232421875	0.00998840332031251
989	0.01220703125	260.828404341472	-0.00458587646484375	0.01243896484375
990	0.0146484375	260.85280434141	-0.0045880126953125	0.01485595703125
991	0.01708984375	260.877204341348	-0.00460357666015625	0.0173583984375
992	0.01953125	260.901604341287	-0.004571533203125	0.0197265625
993	0.02197265625	260.926004341225	-0.00461517333984375	0.02227783203125
