Index	Potential applied (V)	Time (s)	WE(1).Current (A)	WE(1).Potential (V)
1	0.00244140625	6.30993598406894	-0.00456695556640625	0.00264892578125001
2	0.0048828125	6.33433598400734	-0.0046197509765625	0.0051910400390625
3	0.00732421875	6.35873598394573	-0.00456634521484375	0.0075347900390625
4	0.009765625	6.38313598388413	-0.00461273193359375	0.0100128173828125
5	0.01220703125	6.40753598382253	-0.00457763671875	0.0124267578125
6	0.0146484375	6.43193598376092	-0.00459625244140625	0.0148681640625
7	0.01708984375	6.45633598369932	-0.00459503173828125	0.0173370361328125
8	0.01953125	6.48073598363771	-0.00457733154296875	0.0197296142578125
9	0.02197265625	6.50513598357611	-0.0046099853515625	0.0222442626953125
10	0.0244140625	6.52953598351451	-0.0045635986328125	0.0246307373046875
11	0.02685546875	6.5539359834529	-0.004615478515625	0.0271514892578125
12	0.029296875	6.5783359833913	-0.00456085205078125	0.029498291015625
13	0.03173828125	6.60273598332969	-0.00460906982421875	0.0319793701171875
14	0.0341796875	6.62713598326809	-0.0045697021484375	0.034393310546875
15	0.03662109375	6.65153598320649	-0.00459259033203125	0.0368499755859375
16	0.0390625	6.67593598314488	-0.004586181640625	0.039300537109375
17	0.04150390625	6.70033598308328	-0.00457366943359375	0.0416900634765625
18	0.0439453125	6.72473598302167	-0.00460205078125	0.0442230224609375
19	0.04638671875	6.74913598296007	-0.00455841064453125	0.046575927734375
20	0.048828125	6.77353598289847	-0.00460906982421875	0.049835205078125
21	0.05126953125	6.79793598283686	-0.0045538330078125	0.052154541015625
22	0.0537109375	6.82233598277526	-0.00460357666015625	0.05462646484375
23	0.05615234375	6.84673598271365	-0.00456146240234375	0.057098388671875
24	0.05859375	6.87113598265205	-0.00458740234375	0.059600830078125
25	0.06103515625	6.89553598259045	-0.00457733154296875	0.061981201171875
26	0.0634765625	6.91993598252884	-0.00456787109375	0.0643310546875
27	0.06591796875	6.94433598246724	-0.0045941162109375	0.066925048828125
28	0.068359375	6.96873598240563	-0.0045526123046875	0.069244384765625
29	0.07080078125	6.99313598234403	-0.00460235595703125	0.071746826171875
30	0.0732421875	7.01753598228242	-0.004547119140625	0.0740966796875
31	0.07568359375	7.04193598222082	-0.00459930419921875	0.07659912109375
32	0.078125	7.06633598215922	-0.00455474853515625	0.079010009765625
33	0.08056640625	7.09073598209761	-0.004586181640625	0.08154296875
34	0.0830078125	7.11513598203601	-0.0045721435546875	0.08392333984375
35	0.08544921875	7.1395359819744	-0.00456817626953125	0.086334228515625
36	0.087890625	7.1639359819128	-0.00459075927734375	0.088897705078125
37	0.09033203125	7.1883359818512	-0.00455322265625	0.09124755859375
38	0.0927734375	7.21273598178959	-0.00460174560546875	0.093719482421875
39	0.09521484375	7.23713598172799	-0.00454681396484375	0.096099853515625
40	0.09765625	7.26153598166638	-0.00460052490234375	0.0985107421875
41	0.10009765625	7.28593598160478	-0.00455230712890625	0.10107421875
42	0.1025390625	7.31033598154318	-0.0045867919921875	0.10345458984375
43	0.10498046875	7.33473598148157	-0.0045672607421875	0.1058349609375
44	0.107421875	7.35913598141997	-0.00456756591796875	0.1082763671875
45	0.10986328125	7.38353598135836	-0.00458404541015625	0.110809326171875
46	0.1123046875	7.40793598129676	-0.004549560546875	0.1131591796875
47	0.11474609375	7.43233598123516	-0.00459503173828125	0.11572265625
48	0.1171875	7.45673598117355	-0.0045404052734375	0.11810302734375
49	0.11962890625	7.48113598111195	-0.00459381103515625	0.120574951171875
50	0.1220703125	7.50553598105034	-0.00454345703125	0.123016357421875
51	0.12451171875	7.52993598098874	-0.00458221435546875	0.125335693359375
52	0.126953125	7.55433598092714	-0.0045574951171875	0.127899169921875
53	0.12939453125	7.57873598086553	-0.00456298828125	0.130279541015625
54	0.1318359375	7.60313598080393	-0.0045758056640625	0.132781982421875
55	0.13427734375	7.62753598074232	-0.00454498291015625	0.1351318359375
56	0.13671875	7.65193598068072	-0.004588623046875	0.137664794921875
57	0.13916015625	7.67633598061911	-0.00453521728515625	0.14007568359375
58	0.1416015625	7.70073598055751	-0.00459014892578125	0.142486572265625
59	0.14404296875	7.72513598049591	-0.00453765869140625	0.144927978515625
60	0.146484375	7.7495359804343	-0.00457977294921875	0.1473388671875
61	0.14892578125	7.7739359803727	-0.00455169677734375	0.149810791015625
62	0.1513671875	7.79833598031109	-0.00456268310546875	0.152191162109375
63	0.15380859375	7.82273598024949	-0.004571533203125	0.154693603515625
64	0.15625	7.84713598018789	-0.00454559326171875	0.1571044921875
65	0.15869140625	7.87153598012628	-0.004586181640625	0.159637451171875
66	0.1611328125	7.89593598006468	-0.0045355224609375	0.1619873046875
67	0.16357421875	7.92033598000307	-0.0045904541015625	0.16448974609375
68	0.166015625	7.94473597994147	-0.0045361328125	0.1668701171875
69	0.16845703125	7.96913597987987	-0.004581298828125	0.16937255859375
70	0.1708984375	7.99353597981826	-0.00454925537109375	0.171783447265625
71	0.17333984375	8.01793597975666	-0.00456390380859375	0.174163818359375
72	0.17578125	8.04233597969505	-0.00456756591796875	0.1766357421875
73	0.17822265625	8.06673597963345	-0.00454437255859375	0.179107666015625
74	0.1806640625	8.09113597957185	-0.00458160400390625	0.18157958984375
75	0.18310546875	8.11553597951024	-0.00453125	0.1839599609375
76	0.185546875	8.13993597944864	-0.0045849609375	0.1864013671875
77	0.18798828125	8.16433597938703	-0.00452972412109375	0.188873291015625
78	0.1904296875	8.18873597932543	-0.00457611083984375	0.191253662109375
79	0.19287109375	8.21313597926382	-0.004539794921875	0.1937255859375
80	0.1953125	8.23753597920222	-0.00455810546875	0.196136474609375
81	0.19775390625	8.26193597914062	-0.004556884765625	0.19866943359375
82	0.2001953125	8.28633597907901	-0.0045379638671875	0.20098876953125
83	0.20263671875	8.31073597901741	-0.0045721435546875	0.203521728515625
84	0.205078125	8.3351359789558	-0.0045245361328125	0.205902099609375
85	0.20751953125	8.3595359788942	-0.0045782470703125	0.2083740234375
86	0.2099609375	8.3839359788326	-0.004522705078125	0.2108154296875
87	0.21240234375	8.40833597877099	-0.00457275390625	0.2132568359375
88	0.21484375	8.43273597870939	-0.0045330810546875	0.215667724609375
89	0.21728515625	8.45713597864778	-0.00455596923828125	0.2181396484375
90	0.2197265625	8.48153597858618	-0.0045513916015625	0.220611572265625
91	0.22216796875	8.50593597852458	-0.0045379638671875	0.2230224609375
92	0.224609375	8.53033597846297	-0.0045697021484375	0.22552490234375
93	0.22705078125	8.55473597840137	-0.00452484130859375	0.22784423828125
94	0.2294921875	8.57913597833976	-0.00457855224609375	0.230377197265625
95	0.23193359375	8.60353597827816	-0.00452239990234375	0.2327880859375
96	0.234375	8.62793597821656	-0.00457427978515625	0.235260009765625
97	0.23681640625	8.65233597815495	-0.0045330810546875	0.237640380859375
98	0.2392578125	8.67673597809335	-0.004560546875	0.24005126953125
99	0.24169921875	8.70113597803174	-0.00455169677734375	0.24261474609375
100	0.244140625	8.72553597797014	-0.004542236328125	0.244903564453125
101	0.24658203125	8.74993597790854	-0.0045703125	0.2474365234375
102	0.2490234375	8.77433597784693	-0.004527587890625	0.249847412109375
103	0.25146484375	8.79873597778533	-0.0045794677734375	0.2523193359375
104	0.25390625	8.82313597772372	-0.00452239990234375	0.254791259765625
105	0.25634765625	8.84753597766212	-0.0045751953125	0.257232666015625
106	0.2587890625	8.87193597760051	-0.00453033447265625	0.25958251953125
107	0.26123046875	8.89633597753891	-0.00456024169921875	0.26202392578125
108	0.263671875	8.92073597747731	-0.0045465087890625	0.264495849609375
109	0.26611328125	8.9451359774157	-0.00454010009765625	0.26690673828125
110	0.2685546875	8.9695359773541	-0.00456329345703125	0.269378662109375
111	0.27099609375	8.99393597729249	-0.0045233154296875	0.271820068359375
112	0.2734375	9.01833597723089	-0.00457305908203125	0.274322509765625
113	0.27587890625	9.04273597716929	-0.004515380859375	0.27667236328125
114	0.2783203125	9.06713597710768	-0.004569091796875	0.27911376953125
115	0.28076171875	9.09153597704608	-0.0045208740234375	0.28155517578125
116	0.283203125	9.11593597698447	-0.00455474853515625	0.284027099609375
117	0.28564453125	9.14033597692287	-0.0045361328125	0.286468505859375
118	0.2880859375	9.16473597686127	-0.0045343017578125	0.2889404296875
119	0.29052734375	9.18913597679966	-0.0045538330078125	0.291351318359375
120	0.29296875	9.21353597673806	-0.00451690673828125	0.29376220703125
121	0.29541015625	9.23793597667645	-0.0045654296875	0.29632568359375
122	0.2978515625	9.26233597661485	-0.00450958251953125	0.298675537109375
123	0.30029296875	9.28673597655325	-0.00456512451171875	0.3011474609375
124	0.302734375	9.31113597649164	-0.00451416015625	0.30352783203125
125	0.30517578125	9.33553597643004	-0.00455230712890625	0.305938720703125
126	0.3076171875	9.35993597636843	-0.0045306396484375	0.3084716796875
127	0.31005859375	9.38433597630683	-0.00453399658203125	0.310791015625
128	0.3125	9.40873597624523	-0.00454986572265625	0.31329345703125
129	0.31494140625	9.43313597618362	-0.00451751708984375	0.315704345703125
130	0.3173828125	9.45753597612202	-0.00456390380859375	0.31817626953125
131	0.31982421875	9.48193597606041	-0.00450958251953125	0.320587158203125
132	0.322265625	9.50633597599881	-0.00456573486328125	0.3231201171875
133	0.32470703125	9.5307359759372	-0.00451416015625	0.32550048828125
134	0.3271484375	9.5551359758756	-0.00455535888671875	0.327972412109375
135	0.32958984375	9.579535975814	-0.00452911376953125	0.33038330078125
136	0.33203125	9.60393597575239	-0.00453704833984375	0.33282470703125
137	0.33447265625	9.62833597569079	-0.00454833984375	0.33526611328125
138	0.3369140625	9.65273597562918	-0.0045196533203125	0.33770751953125
139	0.33935546875	9.67713597556758	-0.00456268310546875	0.340179443359375
140	0.341796875	9.70153597550598	-0.0045086669921875	0.342620849609375
141	0.34423828125	9.72593597544437	-0.004564208984375	0.345123291015625
142	0.3466796875	9.75033597538277	-0.00451019287109375	0.34747314453125
143	0.34912109375	9.77473597532116	-0.00455322265625	0.34991455078125
144	0.3515625	9.79913597525956	-0.00452239990234375	0.352386474609375
145	0.35400390625	9.82353597519796	-0.00453399658203125	0.354766845703125
146	0.3564453125	9.84793597513635	-0.00453948974609375	0.357330322265625
147	0.35888671875	9.87233597507475	-0.00451324462890625	0.359649658203125
148	0.361328125	9.89673597501314	-0.00455352783203125	0.36212158203125
149	0.36376953125	9.92113597495154	-0.00449981689453125	0.364532470703125
150	0.3662109375	9.94553597488994	-0.0045550537109375	0.3670654296875
151	0.36865234375	9.96993597482833	-0.00449920654296875	0.369415283203125
152	0.37109375	9.99433597476673	-0.00454559326171875	0.371856689453125
153	0.37353515625	10.0187359747051	-0.0045098876953125	0.374359130859375
154	0.3759765625	10.0431359746435	-0.0045263671875	0.376739501953125
155	0.37841796875	10.0675359745819	-0.00452789306640625	0.37921142578125
156	0.380859375	10.0919359745203	-0.00450653076171875	0.381622314453125
157	0.38330078125	10.1163359744587	-0.00454345703125	0.384124755859375
158	0.3857421875	10.1407359743971	-0.00449310302734375	0.386474609375
159	0.38818359375	10.1651359743355	-0.00454925537109375	0.389007568359375
160	0.390625	10.1895359742739	-0.00449249267578125	0.39141845703125
161	0.39306640625	10.2139359742123	-0.00454254150390625	0.393890380859375
162	0.3955078125	10.2383359741507	-0.00450408935546875	0.3963623046875
163	0.39794921875	10.2627359740891	-0.0045257568359375	0.398712158203125
164	0.400390625	10.2871359740275	-0.004522705078125	0.401214599609375
165	0.40283203125	10.3115359739659	-0.00450714111328125	0.40362548828125
166	0.4052734375	10.3359359739043	-0.00454071044921875	0.40618896484375
167	0.40771484375	10.3603359738427	-0.00449310302734375	0.408477783203125
168	0.41015625	10.3847359737811	-0.00454803466796875	0.411041259765625
169	0.41259765625	10.4091359737195	-0.0044903564453125	0.41339111328125
170	0.4150390625	10.4335359736579	-0.00454193115234375	0.41583251953125
171	0.41748046875	10.4579359735962	-0.00449981689453125	0.418304443359375
172	0.419921875	10.4823359735346	-0.0045257568359375	0.420684814453125
173	0.42236328125	10.506735973473	-0.00451690673828125	0.423187255859375
174	0.4248046875	10.5311359734114	-0.00450531005859375	0.425567626953125
175	0.42724609375	10.5555359733498	-0.00453399658203125	0.428070068359375
176	0.4296875	10.5799359732882	-0.004488525390625	0.430419921875
177	0.43212890625	10.6043359732266	-0.004541015625	0.433013916015625
178	0.4345703125	10.628735973165	-0.00448211669921875	0.435302734375
179	0.43701171875	10.6531359731034	-0.0045355224609375	0.437774658203125
180	0.439453125	10.6775359730418	-0.004488525390625	0.440216064453125
181	0.44189453125	10.7019359729802	-0.0045184326171875	0.442718505859375
182	0.4443359375	10.7263359729186	-0.00450408935546875	0.44512939453125
183	0.44677734375	10.750735972857	-0.00449615478515625	0.447509765625
184	0.44921875	10.7751359727954	-0.004520263671875	0.45001220703125
185	0.45166015625	10.7995359727338	-0.0044775390625	0.452392578125
186	0.4541015625	10.8239359726722	-0.00452880859375	0.454925537109375
187	0.45654296875	10.8483359726106	-0.00446990966796875	0.457275390625
188	0.458984375	10.872735972549	-0.004525146484375	0.459747314453125
189	0.46142578125	10.8971359724874	-0.00447509765625	0.462158203125
190	0.4638671875	10.9215359724258	-0.00450958251953125	0.464630126953125
191	0.46630859375	10.9459359723642	-0.00449066162109375	0.467071533203125
192	0.46875	10.9703359723026	-0.00448822021484375	0.469482421875
193	0.47119140625	10.994735972241	-0.00450836181640625	0.472015380859375
194	0.4736328125	11.0191359721794	-0.0044696044921875	0.474334716796875
195	0.47607421875	11.0435359721178	-0.0045196533203125	0.476898193359375
196	0.478515625	11.0679359720561	-0.00446136474609375	0.47918701171875
197	0.48095703125	11.0923359719945	-0.0045184326171875	0.481719970703125
198	0.4833984375	11.1167359719329	-0.00446563720703125	0.484130859375
199	0.48583984375	11.1411359718713	-0.00450408935546875	0.486602783203125
200	0.48828125	11.1655359718097	-0.004481201171875	0.489013671875
201	0.49072265625	11.1899359717481	-0.004483642578125	0.491485595703125
202	0.4931640625	11.2143359716865	-0.0044989013671875	0.493927001953125
203	0.49560546875	11.2387359716249	-0.0044635009765625	0.496307373046875
204	0.498046875	11.2631359715633	-0.00451080322265625	0.49884033203125
205	0.50048828125	11.2875359715017	-0.00445281982421875	0.501190185546875
206	0.5029296875	11.3119359714401	-0.00451019287109375	0.503662109375
207	0.50537109375	11.3363359713785	-0.004454345703125	0.506103515625
208	0.5078125	11.3607359713169	-0.00449615478515625	0.508544921875
209	0.51025390625	11.3851359712553	-0.00446746826171875	0.511016845703125
210	0.5126953125	11.4095359711937	-0.0044744873046875	0.513397216796875
211	0.51513671875	11.4339359711321	-0.00448577880859375	0.515899658203125
212	0.517578125	11.4583359710705	-0.00445281982421875	0.518218994140625
213	0.52001953125	11.4827359710089	-0.0044970703125	0.520782470703125
214	0.5224609375	11.5071359709473	-0.00443878173828125	0.523193359375
215	0.52490234375	11.5315359708857	-0.00449676513671875	0.525665283203125
216	0.52734375	11.5559359708241	-0.00443878173828125	0.527984619140625
217	0.52978515625	11.5803359707625	-0.00448394775390625	0.530517578125
218	0.5322265625	11.6047359707009	-0.0044512939453125	0.532989501953125
219	0.53466796875	11.6291359706393	-0.00446258544921875	0.53533935546875
220	0.537109375	11.6535359705777	-0.00446868896484375	0.537841796875
221	0.53955078125	11.677935970516	-0.00444061279296875	0.540252685546875
222	0.5419921875	11.7023359704544	-0.004482421875	0.54278564453125
223	0.54443359375	11.7267359703928	-0.00442626953125	0.545135498046875
224	0.546875	11.7511359703312	-0.00448455810546875	0.547576904296875
225	0.54931640625	11.7755359702696	-0.004425048828125	0.550018310546875
226	0.5517578125	11.799935970208	-0.00447357177734375	0.552459716796875
227	0.55419921875	11.8243359701464	-0.0044366455078125	0.554901123046875
228	0.556640625	11.8487359700848	-0.00445281982421875	0.557342529296875
229	0.55908203125	11.8731359700232	-0.004454345703125	0.559844970703125
230	0.5615234375	11.8975359699616	-0.004429931640625	0.56219482421875
231	0.56396484375	11.9219359699	-0.004468994140625	0.564727783203125
232	0.56640625	11.9463359698384	-0.0044140625	0.567047119140625
233	0.56884765625	11.9707359697768	-0.00447235107421875	0.56951904296875
234	0.5712890625	11.9951359697152	-0.004410400390625	0.571990966796875
235	0.57373046875	12.0195359696536	-0.0044610595703125	0.574462890625
236	0.576171875	12.043935969592	-0.00441986083984375	0.576873779296875
237	0.57861328125	12.0683359695304	-0.0044390869140625	0.579254150390625
238	0.5810546875	12.0927359694688	-0.00443511962890625	0.581787109375
239	0.58349609375	12.1171359694072	-0.0044134521484375	0.584136962890625
240	0.5859375	12.1415359693456	-0.00444854736328125	0.586639404296875
241	0.58837890625	12.165935969284	-0.00439361572265625	0.588958740234375
242	0.5908203125	12.1903359692224	-0.00445037841796875	0.591522216796875
243	0.59326171875	12.2147359691608	-0.00438568115234375	0.593963623046875
244	0.595703125	12.2391359690992	-0.0044378662109375	0.596405029296875
245	0.59814453125	12.2635359690375	-0.004390869140625	0.598846435546875
246	0.6005859375	12.2879359689759	-0.00441375732421875	0.60125732421875
247	0.60302734375	12.3123359689143	-0.004405517578125	0.603668212890625
248	0.60546875	12.3367359688527	-0.00438690185546875	0.606109619140625
249	0.60791015625	12.3611359687911	-0.0044189453125	0.608642578125
250	0.6103515625	12.3855359687295	-0.004365234375	0.610992431640625
251	0.61279296875	12.4099359686679	-0.004422607421875	0.613525390625
252	0.615234375	12.4343359686063	-0.0043560791015625	0.6158447265625
253	0.61767578125	12.4587359685447	-0.00441131591796875	0.618408203125
254	0.6201171875	12.4831359684831	-0.00436187744140625	0.620758056640625
255	0.62255859375	12.5075359684215	-0.00438934326171875	0.6231689453125
256	0.625	12.5319359683599	-0.00437744140625	0.625732421875
257	0.62744140625	12.5563359682983	-0.0043621826171875	0.628021240234375
258	0.6298828125	12.5807359682367	-0.00439239501953125	0.630523681640625
259	0.63232421875	12.6051359681751	-0.0043402099609375	0.632965087890625
260	0.634765625	12.6295359681135	-0.00439727783203125	0.63543701171875
261	0.63720703125	12.6539359680519	-0.0043292236328125	0.637786865234375
262	0.6396484375	12.6783359679903	-0.00438629150390625	0.640350341796875
263	0.64208984375	12.7027359679287	-0.00433319091796875	0.6427001953125
264	0.64453125	12.7271359678671	-0.00436431884765625	0.6451416015625
265	0.64697265625	12.7515359678055	-0.00434722900390625	0.647613525390625
266	0.6494140625	12.7759359677439	-0.00433502197265625	0.649932861328125
267	0.65185546875	12.8003359676823	-0.00436126708984375	0.652496337890625
268	0.654296875	12.8247359676207	-0.0043096923828125	0.65484619140625
269	0.65673828125	12.8491359675591	-0.004365234375	0.6573486328125
270	0.6591796875	12.8735359674974	-0.00429443359375	0.659698486328125
271	0.66162109375	12.8979359674358	-0.004351806640625	0.662261962890625
272	0.6640625	12.9223359673742	-0.00429290771484375	0.664642333984375
273	0.66650390625	12.9467359673126	-0.004324951171875	0.6671142578125
274	0.6689453125	12.971135967251	-0.00430206298828125	0.669647216796875
275	0.67138671875	12.9955359671894	-0.00429046630859375	0.67193603515625
276	0.673828125	13.0199359671278	-0.00431182861328125	0.6744384765625
277	0.67626953125	13.0443359670662	-0.0042596435546875	0.6767578125
278	0.6787109375	13.0687359670046	-0.00431365966796875	0.679351806640625
279	0.68115234375	13.093135966943	-0.004239501953125	0.681610107421875
280	0.68359375	13.1175359668814	-0.00429901123046875	0.684173583984375
281	0.68603515625	13.1419359668198	-0.004234619140625	0.686553955078125
282	0.6884765625	13.1663359667582	-0.00427032470703125	0.68902587890625
283	0.69091796875	13.1907359666966	-0.00424102783203125	0.691497802734375
284	0.693359375	13.215135966635	-0.0042327880859375	0.693878173828125
285	0.69580078125	13.2395359665734	-0.00425048828125	0.696380615234375
286	0.6982421875	13.2639359665118	-0.00419891357421875	0.69873046875
287	0.70068359375	13.2883359664502	-0.0042510986328125	0.70123291015625
288	0.703125	13.3127359663886	-0.00417327880859375	0.703643798828125
289	0.70556640625	13.337135966327	-0.0042333984375	0.70611572265625
290	0.7080078125	13.3615359662654	-0.004163818359375	0.70849609375
291	0.71044921875	13.3859359662038	-0.004202880859375	0.71099853515625
292	0.712890625	13.4103359661422	-0.0041668701171875	0.71337890625
293	0.71533203125	13.4347359660806	-0.004161376953125	0.7158203125
294	0.7177734375	13.4591359660189	-0.0041729736328125	0.71832275390625
295	0.72021484375	13.4835359659573	-0.00412139892578125	0.720672607421875
296	0.72265625	13.5079359658957	-0.00417083740234375	0.723175048828125
297	0.72509765625	13.5323359658341	-0.0040899658203125	0.7255859375
298	0.7275390625	13.5567359657725	-0.0041510009765625	0.72808837890625
299	0.72998046875	13.5811359657109	-0.00407440185546875	0.73040771484375
300	0.732421875	13.6055359656493	-0.004114990234375	0.732940673828125
301	0.73486328125	13.6299359655877	-0.00407073974609375	0.735382080078125
302	0.7373046875	13.6543359655261	-0.004066162109375	0.73773193359375
303	0.73974609375	13.6787359654645	-0.00407012939453125	0.740234375
304	0.7421875	13.7031359654029	-0.0040167236328125	0.742523193359375
305	0.74462890625	13.7275359653413	-0.00406158447265625	0.74505615234375
306	0.7470703125	13.7519359652797	-0.00397552490234375	0.747528076171875
307	0.74951171875	13.7763359652181	-0.00403472900390625	0.74859619140625
308	0.751953125	13.8007359651565	-0.0039495849609375	0.7513427734375
309	0.75439453125	13.8251359650949	-0.00399261474609375	0.75347900390625
310	0.7568359375	13.8495359650333	-0.0039361572265625	0.7562255859375
311	0.75927734375	13.8739359649717	-0.00393463134765625	0.7586669921875
312	0.76171875	13.8983359649101	-0.00392547607421875	0.7611083984375
313	0.76416015625	13.9227359648485	-0.0038739013671875	0.7635498046875
314	0.7666015625	13.9471359647869	-0.003909912109375	0.76568603515625
315	0.76904296875	13.9715359647253	-0.00382049560546875	0.767822265625
316	0.771484375	13.9959359646637	-0.0038751220703125	0.77117919921875
317	0.77392578125	14.0203359646021	-0.00378326416015625	0.772705078125
318	0.7763671875	14.0447359645405	-0.00382415771484375	0.77606201171875
319	0.77880859375	14.0691359644788	-0.00375762939453125	0.77789306640625
320	0.78125	14.0935359644172	-0.00375640869140625	0.7806396484375
321	0.78369140625	14.1179359643556	-0.00373809814453125	0.78277587890625
322	0.7861328125	14.142335964294	-0.00368743896484375	0.784912109375
323	0.78857421875	14.1667359642324	-0.003714599609375	0.787353515625
324	0.791015625	14.1911359641708	-0.00362152099609375	0.789794921875
325	0.79345703125	14.2155359641092	-0.00366973876953125	0.792236328125
326	0.7958984375	14.2399359640476	-0.00357086181640625	0.79498291015625
327	0.79833984375	14.264335963986	-0.00360870361328125	0.7977294921875
328	0.80078125	14.2887359639244	-0.00353271484375	0.799560546875
329	0.80322265625	14.3131359638628	-0.0035296630859375	0.802001953125
330	0.8056640625	14.3375359638012	-0.00349945068359375	0.8050537109375
331	0.80810546875	14.3619359637396	-0.00344879150390625	0.806884765625
332	0.810546875	14.386335963678	-0.00346282958984375	0.80963134765625
333	0.81298828125	14.4107359636164	-0.0033685302734375	0.811767578125
334	0.8154296875	14.4351359635548	-0.0034051513671875	0.8148193359375
335	0.81787109375	14.4595359634932	-0.00330322265625	0.81695556640625
336	0.8203125	14.4839359634316	-0.00333404541015625	0.819091796875
337	0.82275390625	14.50833596337	-0.0032489013671875	0.821533203125
338	0.8251953125	14.5327359633084	-0.00324188232421875	0.823974609375
339	0.82763671875	14.5571359632468	-0.00319854736328125	0.82672119140625
340	0.830078125	14.5815359631852	-0.003148193359375	0.82916259765625
341	0.83251953125	14.6059359631236	-0.00314788818359375	0.8319091796875
342	0.8349609375	14.630335963062	-0.0030535888671875	0.83404541015625
343	0.83740234375	14.6547359630003	-0.00307708740234375	0.83648681640625
344	0.83984375	14.6791359629387	-0.0029736328125	0.838623046875
345	0.84228515625	14.7035359628771	-0.00299468994140625	0.84197998046875
346	0.8447265625	14.7279359628155	-0.00290252685546875	0.843505859375
347	0.84716796875	14.7523359627539	-0.00289093017578125	0.845947265625
348	0.849609375	14.7767359626923	-0.00283599853515625	0.84869384765625
349	0.85205078125	14.8011359626307	-0.00278533935546875	0.8514404296875
350	0.8544921875	14.8255359625691	-0.00276947021484375	0.853271484375
351	0.85693359375	14.8499359625075	-0.00267791748046875	0.85601806640625
352	0.859375	14.8743359624459	-0.00268646240234375	0.8587646484375
353	0.86181640625	14.8987359623843	-0.00258209228515625	0.860595703125
354	0.8642578125	14.9231359623227	-0.0025921630859375	0.8636474609375
355	0.86669921875	14.9475359622611	-0.0024951171875	0.865478515625
356	0.869140625	14.9719359621995	-0.002479248046875	0.86822509765625
357	0.87158203125	14.9963359621379	-0.00241485595703125	0.87066650390625
358	0.8740234375	15.0207359620763	-0.00236480712890625	0.87310791015625
359	0.87646484375	15.0451359620147	-0.00233489990234375	0.87615966796875
360	0.87890625	15.0695359619531	-0.00224517822265625	0.87799072265625
361	0.88134765625	15.0939359618915	-0.0022393798828125	0.880126953125
362	0.8837890625	15.1183359618299	-0.00213714599609375	0.88287353515625
363	0.88623046875	15.1427359617683	-0.00213531494140625	0.88531494140625
364	0.888671875	15.1671359617067	-0.00203521728515625	0.887451171875
365	0.89111328125	15.1915359616451	-0.00201202392578125	0.89080810546875
366	0.8935546875	15.2159359615835	-0.0019390869140625	0.89263916015625
367	0.89599609375	15.2403359615219	-0.00188751220703125	0.89508056640625
368	0.8984375	15.2647359614602	-0.00184417724609375	0.89752197265625
369	0.90087890625	15.2891359613986	-0.0017547607421875	0.9002685546875
370	0.9033203125	15.313535961337	-0.0017352294921875	0.90301513671875
371	0.90576171875	15.3379359612754	-0.001634521484375	0.904541015625
372	0.908203125	15.3623359612138	-0.0016204833984375	0.9075927734375
373	0.91064453125	15.3867359611522	-0.00151763916015625	0.90972900390625
374	0.9130859375	15.4111359610906	-0.0014862060546875	0.9124755859375
375	0.91552734375	15.435535961029	-0.00140655517578125	0.91461181640625
376	0.91796875	15.4599359609674	-0.0013525390625	0.9173583984375
377	0.92041015625	15.4843359609058	-0.00129791259765625	0.9197998046875
378	0.9228515625	15.5087359608442	-0.001209716796875	0.9222412109375
379	0.92529296875	15.5331359607826	-0.00117584228515625	0.9246826171875
380	0.927734375	15.557535960721	-0.0010772705078125	0.9271240234375
381	0.93017578125	15.5819359606594	-0.001051025390625	0.92926025390625
382	0.9326171875	15.6063359605978	-0.000946044921875	0.931396484375
383	0.93505859375	15.6307359605362	-0.0009063720703125	0.9344482421875
384	0.9375	15.6551359604746	-0.0008203125	0.93658447265625
385	0.93994140625	15.679535960413	-0.00076202392578125	0.93902587890625
386	0.9423828125	15.7039359603514	-0.0006964111328125	0.94146728515625
387	0.94482421875	15.7283359602898	-0.00060821533203125	0.9442138671875
388	0.947265625	15.7527359602282	-0.0005615234375	0.946044921875
389	0.94970703125	15.7771359601666	-0.0004647216796875	0.948486328125
390	0.9521484375	15.801535960105	-0.00042559814453125	0.9515380859375
391	0.95458984375	15.8259359600434	-0.000319915771484375	0.95367431640625
392	0.95703125	15.8503359599817	-0.00026983642578125	0.95611572265625
393	0.95947265625	15.8747359599201	-0.000179962158203125	0.95855712890625
394	0.9619140625	15.8991359598585	-0.00011700439453125	0.9613037109375
395	0.96435546875	15.9235359597969	-4.2999267578125E-05	0.96343994140625
396	0.966796875	15.9479359597353	4.6295166015625E-05	0.965576171875
397	0.96923828125	15.9723359596737	0.00010430908203125	0.968017578125
398	0.9716796875	15.9967359596121	0.000201141357421875	0.9710693359375
399	0.97412109375	16.0211359595505	0.000252044677734375	0.97320556640625
400	0.9765625	16.0455359594889	0.00035919189453125	0.9759521484375
401	0.97900390625	16.0699359594273	0.00041796875	0.97869873046875
402	0.9814453125	16.0943359593657	0.00051177978515625	0.9808349609375
403	0.98388671875	16.1187359593041	0.0005792236328125	0.98297119140625
404	0.986328125	16.1431359592425	0.00066192626953125	0.985107421875
405	0.98876953125	16.1675359591809	0.000753173828125	0.987548828125
406	0.9912109375	16.1919359591193	0.0008221435546875	0.9906005859375
407	0.99365234375	16.2163359590577	0.0009185791015625	0.99273681640625
408	0.99609375	16.2407359589961	0.0009808349609375	0.99517822265625
409	0.99853515625	16.2651359589345	0.001090087890625	0.9979248046875
410	1.0009765625	16.2895359588729	0.00115814208984375	1.00006103515625
411	1.00341796875	16.3139359588113	0.00125579833984375	1.002197265625
412	1.005859375	16.3383359587497	0.00132904052734375	1.00494384765625
413	1.00830078125	16.3627359586881	0.00141998291015625	1.00738525390625
414	1.0107421875	16.3871359586265	0.001514892578125	1.00982666015625
415	1.01318359375	16.4115359585649	0.00159423828125	1.011962890625
416	1.015625	16.4359359585033	0.00169189453125	1.0150146484375
417	1.01806640625	16.4603359584416	0.00176513671875	1.016845703125
418	1.0205078125	16.48473595838	0.00187652587890625	1.019287109375
419	1.02294921875	16.5091359583184	0.0019537353515625	1.02203369140625
420	1.025390625	16.5335359582568	0.00205474853515625	1.02447509765625
421	1.02783203125	16.5579359581952	0.00213531494140625	1.0272216796875
422	1.0302734375	16.5823359581336	0.0022332763671875	1.029052734375
423	1.03271484375	16.606735958072	0.0023321533203125	1.0321044921875
424	1.03515625	16.6311359580104	0.00242034912109375	1.03424072265625
425	1.03759765625	16.6555359579488	0.00251953125	1.03668212890625
426	1.0400390625	16.6799359578872	0.0026031494140625	1.0394287109375
427	1.04248046875	16.7043359578256	0.00271636962890625	1.04156494140625
428	1.044921875	16.728735957764	0.00280242919921875	1.04400634765625
429	1.04736328125	16.7531359577024	0.002906494140625	1.046142578125
430	1.0498046875	16.7775359576408	0.0029937744140625	1.0491943359375
431	1.05224609375	16.8019359575792	0.003096923828125	1.05133056640625
432	1.0546875	16.8263359575176	0.00319976806640625	1.0528564453125
433	1.05712890625	16.850735957456	0.003294677734375	1.055908203125
434	1.0595703125	16.8751359573944	0.00339508056640625	1.05865478515625
435	1.06201171875	16.8995359573328	0.003485107421875	1.0614013671875
436	1.064453125	16.9239359572712	0.00359619140625	1.06353759765625
437	1.06689453125	16.9483359572096	0.00368682861328125	1.065673828125
438	1.0693359375	16.972735957148	0.0037860107421875	1.06842041015625
439	1.07177734375	16.9971359570864	0.00387176513671875	1.070556640625
440	1.07421875	17.0215359570248	0.0039666748046875	1.07330322265625
441	1.07666015625	17.0459359569631	0.00405731201171875	1.075439453125
442	1.0791015625	17.0703359569015	0.004139404296875	1.07818603515625
443	1.08154296875	17.0947359568399	0.0042181396484375	1.08062744140625
444	1.083984375	17.1191359567783	0.00428863525390625	1.08306884765625
445	1.08642578125	17.1435359567167	0.0043670654296875	1.0858154296875
446	1.0888671875	17.1679359566551	0.00443023681640625	1.0882568359375
447	1.09130859375	17.1923359565935	0.00449310302734375	1.09039306640625
448	1.09375	17.2167359565319	0.00454742431640625	1.09283447265625
449	1.09619140625	17.2411359564703	0.0046044921875	1.094970703125
450	1.0986328125	17.2655359564087	0.00465728759765625	1.097412109375
451	1.10107421875	17.2899359563471	0.0047052001953125	1.10015869140625
452	1.103515625	17.3143359562855	0.00474945068359375	1.1029052734375
453	1.10595703125	17.3387359562239	0.00479156494140625	1.10504150390625
454	1.1083984375	17.3631359561623	0.00483612060546875	1.107177734375
455	1.11083984375	17.3875359561007	0.004874267578125	1.10992431640625
456	1.11328125	17.4119359560391	0.00491119384765625	1.112060546875
457	1.11572265625	17.4363359559775	0.004945068359375	1.11480712890625
458	1.1181640625	17.4607359559159	0.00498046875	1.11724853515625
459	1.12060546875	17.4851359558543	0.0050140380859375	1.11968994140625
460	1.123046875	17.5095359557927	0.00504547119140625	1.121826171875
461	1.12548828125	17.5339359557311	0.005074462890625	1.124267578125
462	1.1279296875	17.5583359556695	0.0051031494140625	1.1273193359375
463	1.13037109375	17.5827359556079	0.00513336181640625	1.129150390625
464	1.1328125	17.6071359555463	0.00516021728515625	1.131591796875
465	1.13525390625	17.6315359554847	0.0051861572265625	1.134033203125
466	1.1376953125	17.655935955423	0.00521087646484375	1.13677978515625
467	1.14013671875	17.6803359553614	0.00523651123046875	1.138916015625
468	1.142578125	17.7047359552998	0.00526123046875	1.141357421875
469	1.14501953125	17.7291359552382	0.00528472900390625	1.143798828125
470	1.1474609375	17.7535359551766	0.00530670166015625	1.146240234375
471	1.14990234375	17.777935955115	0.0053289794921875	1.148681640625
472	1.15234375	17.8023359550534	0.00535186767578125	1.151123046875
473	1.15478515625	17.8267359549918	0.0053729248046875	1.153564453125
474	1.1572265625	17.8511359549302	0.00539306640625	1.15631103515625
475	1.15966796875	17.8755359548686	0.00541290283203125	1.15875244140625
476	1.162109375	17.899935954807	0.00543304443359375	1.160888671875
477	1.16455078125	17.9243359547454	0.00545318603515625	1.16363525390625
478	1.1669921875	17.9487359546838	0.0054718017578125	1.1663818359375
479	1.16943359375	17.9731359546222	0.005489501953125	1.16790771484375
480	1.171875	17.9975359545606	0.00550811767578125	1.170654296875
481	1.17431640625	18.021935954499	0.0055267333984375	1.173095703125
482	1.1767578125	18.0463359544374	0.00554443359375	1.17584228515625
483	1.17919921875	18.0707359543758	0.0055609130859375	1.17828369140625
484	1.181640625	18.0951359543142	0.005577392578125	1.180419921875
485	1.18408203125	18.1195359542526	0.005594482421875	1.18316650390625
486	1.1865234375	18.143935954191	0.005611572265625	1.1859130859375
487	1.18896484375	18.1683359541294	0.00562744140625	1.187744140625
488	1.19140625	18.1927359540678	0.00564239501953125	1.18988037109375
489	1.19384765625	18.2171359540062	0.00565826416015625	1.1932373046875
490	1.1962890625	18.2415359539445	0.00567413330078125	1.19537353515625
491	1.19873046875	18.2659359538829	0.00568939208984375	1.1981201171875
492	1.201171875	18.2903359538213	0.00570343017578125	1.20025634765625
493	1.19873046875	18.3147359537597	0.00568603515625	1.19781494140625
494	1.1962890625	18.3391359536981	0.0056689453125	1.195068359375
495	1.19384765625	18.3635359536365	0.00565155029296875	1.192626953125
496	1.19140625	18.3879359535749	0.00563323974609375	1.19049072265625
497	1.18896484375	18.4123359535133	0.00561431884765625	1.18804931640625
498	1.1865234375	18.4367359534517	0.005595703125	1.18560791015625
499	1.18408203125	18.4611359533901	0.005577392578125	1.18255615234375
500	1.181640625	18.4855359533285	0.00555816650390625	1.18072509765625
501	1.17919921875	18.5099359532669	0.0055377197265625	1.17828369140625
502	1.1767578125	18.5343359532053	0.0055169677734375	1.17523193359375
503	1.17431640625	18.5587359531437	0.00549713134765625	1.17340087890625
504	1.171875	18.5831359530821	0.00547637939453125	1.17034912109375
505	1.16943359375	18.6075359530205	0.0054547119140625	1.16851806640625
506	1.1669921875	18.6319359529589	0.00543182373046875	1.165771484375
507	1.16455078125	18.6563359528973	0.005408935546875	1.16363525390625
508	1.162109375	18.6807359528357	0.005386962890625	1.160888671875
509	1.15966796875	18.7051359527741	0.0053631591796875	1.1590576171875
510	1.1572265625	18.7295359527125	0.00533782958984375	1.15631103515625
511	1.15478515625	18.7539359526509	0.0053118896484375	1.15386962890625
512	1.15234375	18.7783359525893	0.00528717041015625	1.15142822265625
513	1.14990234375	18.8027359525277	0.0052606201171875	1.1492919921875
514	1.1474609375	18.8271359524661	0.005233154296875	1.1468505859375
515	1.14501953125	18.8515359524044	0.00520355224609375	1.1444091796875
516	1.142578125	18.8759359523428	0.0051739501953125	1.14166259765625
517	1.14013671875	18.9003359522812	0.005145263671875	1.13922119140625
518	1.1376953125	18.9247359522196	0.00511260986328125	1.136474609375
519	1.13525390625	18.949135952158	0.005079345703125	1.134033203125
520	1.1328125	18.9735359520964	0.0050433349609375	1.131591796875
521	1.13037109375	18.9979359520348	0.005009765625	1.1297607421875
522	1.1279296875	19.0223359519732	0.004971923828125	1.126708984375
523	1.12548828125	19.0467359519116	0.004932861328125	1.124267578125
524	1.123046875	19.07113595185	0.0048895263671875	1.1212158203125
525	1.12060546875	19.0955359517884	0.0048455810546875	1.11968994140625
526	1.1181640625	19.1199359517268	0.00480224609375	1.116943359375
527	1.11572265625	19.1443359516652	0.00475128173828125	1.114501953125
528	1.11328125	19.1687359516036	0.00469940185546875	1.112060546875
529	1.11083984375	19.193135951542	0.0046392822265625	1.109619140625
530	1.1083984375	19.2175359514804	0.0045855712890625	1.107177734375
531	1.10595703125	19.2419359514188	0.00451873779296875	1.104736328125
532	1.103515625	19.2663359513572	0.00445159912109375	1.10260009765625
533	1.10107421875	19.2907359512956	0.0043731689453125	1.10015869140625
534	1.0986328125	19.315135951234	0.004293212890625	1.09771728515625
535	1.09619140625	19.3395359511724	0.0042132568359375	1.094970703125
536	1.09375	19.3639359511108	0.0041162109375	1.092529296875
537	1.09130859375	19.3883359510492	0.0040228271484375	1.09039306640625
538	1.0888671875	19.4127359509876	0.00391021728515625	1.08795166015625
539	1.08642578125	19.4371359509259	0.0038189697265625	1.08551025390625
540	1.083984375	19.4615359508643	0.003702392578125	1.08245849609375
541	1.08154296875	19.4859359508027	0.00359771728515625	1.08062744140625
542	1.0791015625	19.5103359507411	0.0034771728515625	1.07818603515625
543	1.07666015625	19.5347359506795	0.00336639404296875	1.07574462890625
544	1.07421875	19.5591359506179	0.00326141357421875	1.072998046875
545	1.07177734375	19.5835359505563	0.003140869140625	1.0711669921875
546	1.0693359375	19.6079359504947	0.00303619384765625	1.06842041015625
547	1.06689453125	19.6323359504331	0.002908935546875	1.06597900390625
548	1.064453125	19.6567359503715	0.002818603515625	1.06353759765625
549	1.06201171875	19.6811359503099	0.0026959228515625	1.060791015625
550	1.0595703125	19.7055359502483	0.002596435546875	1.05926513671875
551	1.05712890625	19.7299359501867	0.00247650146484375	1.05621337890625
552	1.0546875	19.7543359501251	0.0023724365234375	1.053466796875
553	1.05224609375	19.7787359500635	0.00227325439453125	1.051025390625
554	1.0498046875	19.8031359500019	0.002158203125	1.048583984375
555	1.04736328125	19.8275359499403	0.00206390380859375	1.04644775390625
556	1.044921875	19.8519359498787	0.0019415283203125	1.043701171875
557	1.04248046875	19.8763359498171	0.00186370849609375	1.0418701171875
558	1.0400390625	19.9007359497555	0.0017437744140625	1.03912353515625
559	1.03759765625	19.9251359496939	0.0016571044921875	1.03668212890625
560	1.03515625	19.9495359496323	0.00154205322265625	1.03424072265625
561	1.03271484375	19.9739359495707	0.00144989013671875	1.03179931640625
562	1.0302734375	19.9983359495091	0.0013580322265625	1.0296630859375
563	1.02783203125	20.0227359494475	0.001251220703125	1.02691650390625
564	1.025390625	20.0471359493858	0.0011676025390625	1.024169921875
565	1.02294921875	20.0715359493242	0.0010504150390625	1.02203369140625
566	1.0205078125	20.0959359492626	0.00098541259765625	1.019287109375
567	1.01806640625	20.120335949201	0.000867919921875	1.016845703125
568	1.015625	20.1447359491394	0.0007952880859375	1.014404296875
569	1.01318359375	20.1691359490778	0.00068450927734375	1.011962890625
570	1.0107421875	20.1935359490162	0.000604248046875	1.00982666015625
571	1.00830078125	20.2179359489546	0.00051849365234375	1.00677490234375
572	1.005859375	20.242335948893	0.000419586181640625	1.00494384765625
573	1.00341796875	20.2667359488314	0.000347564697265625	1.0028076171875
574	1.0009765625	20.2911359487698	0.00023516845703125	1.0003662109375
575	0.99853515625	20.3155359487082	0.000183685302734375	0.9979248046875
576	0.99609375	20.3399359486466	6.9671630859375E-05	0.99517822265625
577	0.99365234375	20.364335948585	1.2384033203125E-05	0.9930419921875
578	0.9912109375	20.3887359485234	-9.356689453125E-05	0.99029541015625
579	0.98876953125	20.4131359484618	-0.0001610107421875	0.9881591796875
580	0.986328125	20.4375359484002	-0.000239898681640625	0.98541259765625
581	0.98388671875	20.4619359483386	-0.00032879638671875	0.98297119140625
582	0.9814453125	20.486335948277	-0.000389892578125	0.98114013671875
583	0.97900390625	20.5107359482154	-0.0004962158203125	0.97808837890625
584	0.9765625	20.5351359481538	-0.000533447265625	0.97564697265625
585	0.97412109375	20.5595359480922	-0.00064483642578125	0.972900390625
586	0.9716796875	20.5839359480306	-0.00068634033203125	0.9710693359375
587	0.96923828125	20.608335947969	-0.000789794921875	0.9686279296875
588	0.966796875	20.6327359479073	-0.00084228515625	0.9661865234375
589	0.96435546875	20.6571359478457	-0.00091705322265625	0.963134765625
590	0.9619140625	20.6815359477841	-0.00099517822265625	0.960693359375
591	0.95947265625	20.7059359477225	-0.00104736328125	0.95855712890625
592	0.95703125	20.7303359476609	-0.0011480712890625	0.9564208984375
593	0.95458984375	20.7547359475993	-0.00117218017578125	0.9539794921875
594	0.9521484375	20.7791359475377	-0.0012823486328125	0.950927734375
595	0.94970703125	20.8035359474761	-0.00130889892578125	0.948486328125
596	0.947265625	20.8279359474145	-0.00141204833984375	0.946044921875
597	0.94482421875	20.8523359473529	-0.001448974609375	0.94451904296875
598	0.9423828125	20.8767359472913	-0.00152191162109375	0.94146728515625
599	0.93994140625	20.9011359472297	-0.00158935546875	0.93902587890625
600	0.9375	20.9255359471681	-0.0016339111328125	0.93658447265625
601	0.93505859375	20.9499359471065	-0.001729736328125	0.933837890625
602	0.9326171875	20.9743359470449	-0.001741943359375	0.93170166015625
603	0.93017578125	20.9987359469833	-0.00185089111328125	0.92926025390625
604	0.927734375	21.0231359469217	-0.001861572265625	0.9271240234375
605	0.92529296875	21.0475359468601	-0.00196380615234375	0.92437744140625
606	0.9228515625	21.0719359467985	-0.00198577880859375	0.921630859375
607	0.92041015625	21.0963359467369	-0.002056884765625	0.9197998046875
608	0.91796875	21.1207359466753	-0.00211212158203125	0.916748046875
609	0.91552734375	21.1451359466137	-0.002149658203125	0.91461181640625
610	0.9130859375	21.1695359465521	-0.00223785400390625	0.91217041015625
611	0.91064453125	21.1939359464905	-0.00223846435546875	0.909423828125
612	0.908203125	21.2183359464289	-0.0023443603515625	0.906982421875
613	0.90576171875	21.2427359463672	-0.00233856201171875	0.904541015625
614	0.9033203125	21.2671359463056	-0.0024407958984375	0.902099609375
615	0.90087890625	21.291535946244	-0.0024462890625	0.9002685546875
616	0.8984375	21.3159359461824	-0.00251617431640625	0.89752197265625
617	0.89599609375	21.3403359461208	-0.00255767822265625	0.89508056640625
618	0.8935546875	21.3647359460592	-0.00258941650390625	0.892333984375
619	0.89111328125	21.3891359459976	-0.0026690673828125	0.89019775390625
620	0.888671875	21.413535945936	-0.002659912109375	0.887451171875
621	0.88623046875	21.4379359458744	-0.00276275634765625	0.88531494140625
622	0.8837890625	21.4623359458128	-0.0027423095703125	0.88348388671875
623	0.88134765625	21.4867359457512	-0.0028448486328125	0.88043212890625
624	0.87890625	21.5111359456896	-0.0028350830078125	0.877685546875
625	0.87646484375	21.535535945628	-0.002906494140625	0.87554931640625
626	0.8740234375	21.5599359455664	-0.0029351806640625	0.872802734375
627	0.87158203125	21.5843359455048	-0.00296356201171875	0.870361328125
628	0.869140625	21.6087359454432	-0.00303558349609375	0.86822509765625
629	0.86669921875	21.6331359453816	-0.0030181884765625	0.865478515625
630	0.8642578125	21.65753594532	-0.0031182861328125	0.86334228515625
631	0.86181640625	21.6819359452584	-0.00308563232421875	0.860595703125
632	0.859375	21.7063359451968	-0.0031890869140625	0.858154296875
633	0.85693359375	21.7307359451352	-0.003165283203125	0.8563232421875
634	0.8544921875	21.7551359450736	-0.00323822021484375	0.8538818359375
635	0.85205078125	21.779535945012	-0.00325408935546875	0.85113525390625
636	0.849609375	21.8039359449504	-0.00328155517578125	0.84869384765625
637	0.84716796875	21.8283359448887	-0.0033441162109375	0.8465576171875
638	0.8447265625	21.8527359448271	-0.00332183837890625	0.84381103515625
639	0.84228515625	21.8771359447655	-0.00341827392578125	0.8416748046875
640	0.83984375	21.9015359447039	-0.00337554931640625	0.83892822265625
641	0.83740234375	21.9259359446423	-0.00347747802734375	0.836181640625
642	0.8349609375	21.9503359445807	-0.003441162109375	0.8343505859375
643	0.83251953125	21.9747359445191	-0.003514404296875	0.831298828125
644	0.830078125	21.9991359444575	-0.0035162353515625	0.82916259765625
645	0.82763671875	22.0235359443959	-0.00354217529296875	0.82672119140625
646	0.8251953125	22.0479359443343	-0.00359344482421875	0.82427978515625
647	0.82275390625	22.0723359442727	-0.003568115234375	0.82244873046875
648	0.8203125	22.0967359442111	-0.0036578369140625	0.81939697265625
649	0.81787109375	22.1211359441495	-0.0036065673828125	0.816650390625
650	0.8154296875	22.1455359440879	-0.00370574951171875	0.81451416015625
651	0.81298828125	22.1699359440263	-0.0036572265625	0.811767578125
652	0.810546875	22.1943359439647	-0.00373199462890625	0.809326171875
653	0.80810546875	22.2187359439031	-0.003720703125	0.80718994140625
654	0.8056640625	22.2431359438415	-0.0037481689453125	0.8050537109375
655	0.80322265625	22.2675359437799	-0.0037884521484375	0.80230712890625
656	0.80078125	22.2919359437183	-0.00376190185546875	0.79925537109375
657	0.79833984375	22.3163359436567	-0.00384307861328125	0.7977294921875
658	0.7958984375	22.3407359435951	-0.00378753662109375	0.79498291015625
659	0.79345703125	22.3651359435335	-0.0038836669921875	0.79254150390625
660	0.791015625	22.3895359434719	-0.00382904052734375	0.789794921875
661	0.78857421875	22.4139359434103	-0.00390411376953125	0.7879638671875
662	0.7861328125	22.4383359433486	-0.00388336181640625	0.78582763671875
663	0.78369140625	22.462735943287	-0.00391357421875	0.782470703125
664	0.78125	22.4871359432254	-0.003944091796875	0.7806396484375
665	0.77880859375	22.5115359431638	-0.0039208984375	0.7781982421875
666	0.7763671875	22.5359359431022	-0.00399383544921875	0.77606201171875
667	0.77392578125	22.5603359430406	-0.00393798828125	0.7733154296875
668	0.771484375	22.584735942979	-0.0040289306640625	0.7708740234375
669	0.76904296875	22.6091359429174	-0.0039697265625	0.76812744140625
670	0.7666015625	22.6335359428558	-0.004044189453125	0.7659912109375
671	0.76416015625	22.6579359427942	-0.00401641845703125	0.76385498046875
672	0.76171875	22.6823359427326	-0.0040484619140625	0.7611083984375
673	0.75927734375	22.706735942671	-0.0040673828125	0.7586669921875
674	0.7568359375	22.7311359426094	-0.00404541015625	0.7562255859375
675	0.75439453125	22.7555359425478	-0.0041070556640625	0.75347900390625
676	0.751953125	22.7799359424862	-0.0040496826171875	0.75164794921875
677	0.74951171875	22.8043359424246	-0.004132080078125	0.74859619140625
678	0.7470703125	22.828735942363	-0.00406890869140625	0.747528076171875
679	0.74462890625	22.8531359423014	-0.0041387939453125	0.7451171875
680	0.7421875	22.8775359422398	-0.0041046142578125	0.742645263671875
681	0.73974609375	22.9019359421782	-0.00413543701171875	0.740142822265625
682	0.7373046875	22.9263359421166	-0.00414764404296875	0.737823486328125
683	0.73486328125	22.950735942055	-0.0041290283203125	0.73529052734375
684	0.732421875	22.9751359419934	-0.00418609619140625	0.732940673828125
685	0.72998046875	22.9995359419318	-0.004132080078125	0.73040771484375
686	0.7275390625	23.0239359418701	-0.00421112060546875	0.728118896484375
687	0.72509765625	23.0483359418085	-0.00414794921875	0.725555419921875
688	0.72265625	23.0727359417469	-0.0042181396484375	0.72320556640625
689	0.72021484375	23.0971359416853	-0.0041796875	0.720703125
690	0.7177734375	23.1215359416237	-0.00421478271484375	0.71826171875
691	0.71533203125	23.1459359415621	-0.00421966552734375	0.715850830078125
692	0.712890625	23.1703359415005	-0.00420623779296875	0.71337890625
693	0.71044921875	23.1947359414389	-0.0042559814453125	0.711029052734375
694	0.7080078125	23.2191359413773	-0.00420562744140625	0.70849609375
695	0.70556640625	23.2435359413157	-0.00427947998046875	0.70611572265625
696	0.703125	23.2679359412541	-0.00421722412109375	0.703643798828125
697	0.70068359375	23.2923359411925	-0.004287109375	0.701202392578125
698	0.6982421875	23.3167359411309	-0.00424468994140625	0.698822021484375
699	0.69580078125	23.3411359410693	-0.0042828369140625	0.69635009765625
700	0.693359375	23.3655359410077	-0.004281005859375	0.693939208984375
701	0.69091796875	23.3899359409461	-0.0042730712890625	0.69140625
702	0.6884765625	23.4143359408845	-0.004315185546875	0.689056396484375
703	0.68603515625	23.4387359408229	-0.0042694091796875	0.68658447265625
704	0.68359375	23.4631359407613	-0.00433868408203125	0.684173583984375
705	0.68115234375	23.4875359406997	-0.00427703857421875	0.681640625
706	0.6787109375	23.5119359406381	-0.004345703125	0.6793212890625
707	0.67626953125	23.5363359405765	-0.004300537109375	0.676788330078125
708	0.673828125	23.5607359405149	-0.00434112548828125	0.674407958984375
709	0.67138671875	23.5851359404533	-0.004332275390625	0.67205810546875
710	0.6689453125	23.6095359403917	-0.0043292236328125	0.6695556640625
711	0.66650390625	23.63393594033	-0.00436309814453125	0.667144775390625
712	0.6640625	23.6583359402684	-0.00432098388671875	0.66461181640625
713	0.66162109375	23.6827359402068	-0.0043841552734375	0.66229248046875
714	0.6591796875	23.7071359401452	-0.00432281494140625	0.6597900390625
715	0.65673828125	23.7315359400836	-0.00438934326171875	0.65740966796875
716	0.654296875	23.755935940022	-0.0043389892578125	0.654876708984375
717	0.65185546875	23.7803359399604	-0.004381103515625	0.65252685546875
718	0.6494140625	23.8047359398988	-0.0043646240234375	0.650054931640625
719	0.64697265625	23.8291359398372	-0.00436492919921875	0.647552490234375
720	0.64453125	23.8535359397756	-0.00439208984375	0.64520263671875
721	0.64208984375	23.877935939714	-0.00435302734375	0.6427001953125
722	0.6396484375	23.9023359396524	-0.00441162109375	0.640289306640625
723	0.63720703125	23.9267359395908	-0.00435211181640625	0.637847900390625
724	0.634765625	23.9511359395292	-0.004417724609375	0.635467529296875
725	0.63232421875	23.9755359394676	-0.00436614990234375	0.632904052734375
726	0.6298828125	23.999935939406	-0.00441131591796875	0.630523681640625
727	0.62744140625	24.0243359393444	-0.004390869140625	0.628143310546875
728	0.625	24.0487359392828	-0.00439788818359375	0.6256103515625
729	0.62255859375	24.0731359392212	-0.0044195556640625	0.623260498046875
730	0.6201171875	24.0975359391596	-0.00438690185546875	0.620758056640625
731	0.61767578125	24.121935939098	-0.00444183349609375	0.61834716796875
732	0.615234375	24.1463359390364	-0.004384765625	0.615875244140625
733	0.61279296875	24.1707359389748	-0.00445037841796875	0.613494873046875
734	0.6103515625	24.1951359389132	-0.00439788818359375	0.610992431640625
735	0.60791015625	24.2195359388515	-0.0044464111328125	0.608612060546875
736	0.60546875	24.2439359387899	-0.00442138671875	0.606109619140625
737	0.60302734375	24.2683359387283	-0.00443328857421875	0.603668212890625
738	0.6005859375	24.2927359386667	-0.00444915771484375	0.601318359375
739	0.59814453125	24.3171359386051	-0.0044207763671875	0.5987548828125
740	0.595703125	24.3415359385435	-0.00447113037109375	0.596435546875
741	0.59326171875	24.3659359384819	-0.00441619873046875	0.59393310546875
742	0.5908203125	24.3903359384203	-0.00447906494140625	0.591552734375
743	0.58837890625	24.4147359383587	-0.00442474365234375	0.58905029296875
744	0.5859375	24.4391359382971	-0.0044744873046875	0.58660888671875
745	0.58349609375	24.4635359382355	-0.004444580078125	0.584259033203125
746	0.5810546875	24.4879359381739	-0.0044598388671875	0.58172607421875
747	0.57861328125	24.5123359381123	-0.0044683837890625	0.579315185546875
748	0.576171875	24.5367359380507	-0.00444366455078125	0.57684326171875
749	0.57373046875	24.5611359379891	-0.00448822021484375	0.574432373046875
750	0.5712890625	24.5855359379275	-0.00443511962890625	0.571929931640625
751	0.56884765625	24.6099359378659	-0.00449554443359375	0.569549560546875
752	0.56640625	24.6343359378043	-0.0044390869140625	0.567108154296875
753	0.56396484375	24.6587359377427	-0.00449066162109375	0.564666748046875
754	0.5615234375	24.6831359376811	-0.00445556640625	0.562255859375
755	0.55908203125	24.7075359376195	-0.0044757080078125	0.55975341796875
756	0.556640625	24.7319359375579	-0.004478759765625	0.557403564453125
757	0.55419921875	24.7563359374963	-0.00445953369140625	0.55487060546875
758	0.5517578125	24.7807359374347	-0.00449920654296875	0.552520751953125
759	0.54931640625	24.8051359373731	-0.00444976806640625	0.54998779296875
760	0.546875	24.8295359373114	-0.00450927734375	0.547637939453125
761	0.54443359375	24.8539359372498	-0.0044525146484375	0.545135498046875
762	0.5419921875	24.8783359371882	-0.00450653076171875	0.54266357421875
763	0.53955078125	24.9027359371266	-0.00446807861328125	0.540283203125
764	0.537109375	24.927135937065	-0.00449310302734375	0.537811279296875
765	0.53466796875	24.9515359370034	-0.00449127197265625	0.535400390625
766	0.5322265625	24.9759359369418	-0.0044781494140625	0.532958984375
767	0.52978515625	25.0003359368802	-0.00451416015625	0.53057861328125
768	0.52734375	25.0247359368186	-0.004468994140625	0.5279541015625
769	0.52490234375	25.049135936757	-0.00452667236328125	0.525665283203125
770	0.5224609375	25.0735359366954	-0.00447021484375	0.523162841796875
771	0.52001953125	25.0979359366338	-0.00452545166015625	0.520721435546875
772	0.517578125	25.1223359365722	-0.0044842529296875	0.518310546875
773	0.51513671875	25.1467359365106	-0.0045135498046875	0.515838623046875
774	0.5126953125	25.171135936449	-0.00450592041015625	0.513397216796875
775	0.51025390625	25.1955359363874	-0.0044970703125	0.51092529296875
776	0.5078125	25.2199359363258	-0.0045269775390625	0.50860595703125
777	0.50537109375	25.2443359362642	-0.0044842529296875	0.50604248046875
778	0.5029296875	25.2687359362026	-0.00453857421875	0.50372314453125
779	0.50048828125	25.293135936141	-0.0044818115234375	0.501190185546875
780	0.498046875	25.3175359360794	-0.004537353515625	0.498809814453125
781	0.49560546875	25.3419359360178	-0.0044915771484375	0.496337890625
782	0.4931640625	25.3663359359562	-0.00452392578125	0.493927001953125
783	0.49072265625	25.3907359358946	-0.004510498046875	0.491485595703125
784	0.48828125	25.415135935833	-0.004505615234375	0.489013671875
785	0.48583984375	25.4395359357713	-0.00452972412109375	0.4866943359375
786	0.4833984375	25.4639359357097	-0.00449005126953125	0.484100341796875
787	0.48095703125	25.4883359356481	-0.00454193115234375	0.481781005859375
788	0.478515625	25.5127359355865	-0.00448577880859375	0.479248046875
789	0.47607421875	25.5371359355249	-0.00454254150390625	0.476898193359375
790	0.4736328125	25.5615359354633	-0.00449432373046875	0.474395751953125
791	0.47119140625	25.5859359354017	-0.00453125	0.471954345703125
792	0.46875	25.6103359353401	-0.00451263427734375	0.469482421875
793	0.46630859375	25.6347359352785	-0.00451446533203125	0.467010498046875
794	0.4638671875	25.6591359352169	-0.004534912109375	0.4647216796875
795	0.46142578125	25.6835359351553	-0.00450042724609375	0.462158203125
796	0.458984375	25.7079359350937	-0.0045501708984375	0.459808349609375
797	0.45654296875	25.7323359350321	-0.004495849609375	0.457244873046875
798	0.4541015625	25.7567359349705	-0.00455413818359375	0.454833984375
799	0.45166015625	25.7811359349089	-0.00450439453125	0.45245361328125
800	0.44921875	25.8055359348473	-0.0045458984375	0.45001220703125
801	0.44677734375	25.8299359347857	-0.00452301025390625	0.447601318359375
802	0.4443359375	25.8543359347241	-0.0045306396484375	0.445068359375
803	0.44189453125	25.8787359346625	-0.0045458984375	0.44268798828125
804	0.439453125	25.9031359346009	-0.0045159912109375	0.440185546875
805	0.43701171875	25.9275359345393	-0.00456207275390625	0.4378662109375
806	0.4345703125	25.9519359344777	-0.00450897216796875	0.43536376953125
807	0.43212890625	25.9763359344161	-0.00456695556640625	0.432952880859375
808	0.4296875	26.0007359343545	-0.00451507568359375	0.430450439453125
809	0.42724609375	26.0251359342928	-0.00455902099609375	0.42803955078125
810	0.4248046875	26.0495359342312	-0.0045306396484375	0.425628662109375
811	0.42236328125	26.0739359341696	-0.004542236328125	0.423126220703125
812	0.419921875	26.098335934108	-0.00455078125	0.4207763671875
813	0.41748046875	26.1227359340464	-0.004525146484375	0.41827392578125
814	0.4150390625	26.1471359339848	-0.004566650390625	0.415924072265625
815	0.41259765625	26.1715359339232	-0.00451507568359375	0.41339111328125
816	0.41015625	26.1959359338616	-0.00457061767578125	0.410980224609375
817	0.40771484375	26.2203359338	-0.0045166015625	0.408477783203125
818	0.4052734375	26.2447359337384	-0.00456298828125	0.405975341796875
819	0.40283203125	26.2691359336768	-0.00453033447265625	0.403594970703125
820	0.400390625	26.2935359336152	-0.00454681396484375	0.401153564453125
821	0.39794921875	26.3179359335536	-0.00454986572265625	0.39874267578125
822	0.3955078125	26.342335933492	-0.00452911376953125	0.39630126953125
823	0.39306640625	26.3667359334304	-0.004566650390625	0.393890380859375
824	0.390625	26.3911359333688	-0.0045184326171875	0.391357421875
825	0.38818359375	26.4155359333072	-0.004573974609375	0.38897705078125
826	0.3857421875	26.4399359332456	-0.0045196533203125	0.386474609375
827	0.38330078125	26.464335933184	-0.00456939697265625	0.38409423828125
828	0.380859375	26.4887359331224	-0.00453338623046875	0.381683349609375
829	0.37841796875	26.5131359330608	-0.0045556640625	0.379241943359375
830	0.3759765625	26.5375359329992	-0.00455352783203125	0.376861572265625
831	0.37353515625	26.5619359329376	-0.00453857421875	0.374267578125
832	0.37109375	26.586335932876	-0.00457244873046875	0.3719482421875
833	0.36865234375	26.6107359328144	-0.004527587890625	0.36944580078125
834	0.3662109375	26.6351359327527	-0.00458251953125	0.3670654296875
835	0.36376953125	26.6595359326911	-0.004527587890625	0.364593505859375
836	0.361328125	26.6839359326295	-0.00457977294921875	0.362152099609375
837	0.35888671875	26.7083359325679	-0.004539794921875	0.35968017578125
838	0.3564453125	26.7327359325063	-0.00456695556640625	0.35723876953125
839	0.35400390625	26.7571359324447	-0.00455963134765625	0.354827880859375
840	0.3515625	26.7815359323831	-0.00454925537109375	0.352325439453125
841	0.34912109375	26.8059359323215	-0.0045782470703125	0.3499755859375
842	0.3466796875	26.8303359322599	-0.0045361328125	0.347503662109375
843	0.34423828125	26.8547359321983	-0.00458831787109375	0.345062255859375
844	0.341796875	26.8791359321367	-0.00453277587890625	0.342559814453125
845	0.33935546875	26.9035359320751	-0.0045849609375	0.340179443359375
846	0.3369140625	26.9279359320135	-0.00454132080078125	0.33770751953125
847	0.33447265625	26.9523359319519	-0.004571533203125	0.335296630859375
848	0.33203125	26.9767359318903	-0.00455841064453125	0.332855224609375
849	0.32958984375	27.0011359318287	-0.0045526123046875	0.330352783203125
850	0.3271484375	27.0255359317671	-0.0045758056640625	0.327972412109375
851	0.32470703125	27.0499359317055	-0.00453704833984375	0.325531005859375
852	0.322265625	27.0743359316439	-0.00458648681640625	0.32305908203125
853	0.31982421875	27.0987359315823	-0.00453125	0.320648193359375
854	0.3173828125	27.1231359315207	-0.0045849609375	0.31829833984375
855	0.31494140625	27.1475359314591	-0.00453857421875	0.3157958984375
856	0.3125	27.1719359313975	-0.004573974609375	0.31329345703125
857	0.31005859375	27.1963359313359	-0.00455596923828125	0.310882568359375
858	0.3076171875	27.2207359312742	-0.004556884765625	0.308441162109375
859	0.30517578125	27.2451359312126	-0.0045758056640625	0.30596923828125
860	0.302734375	27.269535931151	-0.00454132080078125	0.303497314453125
861	0.30029296875	27.2939359310894	-0.0045892333984375	0.301116943359375
862	0.2978515625	27.3183359310278	-0.0045355224609375	0.298614501953125
863	0.29541015625	27.3427359309662	-0.00459075927734375	0.296417236328125
864	0.29296875	27.3671359309046	-0.00454254150390625	0.293792724609375
865	0.29052734375	27.391535930843	-0.0045806884765625	0.29132080078125
866	0.2880859375	27.4159359307814	-0.00455718994140625	0.288970947265625
867	0.28564453125	27.4403359307198	-0.00456268310546875	0.286529541015625
868	0.283203125	27.4647359306582	-0.00457733154296875	0.284088134765625
869	0.28076171875	27.4891359305966	-0.00454681396484375	0.2816162109375
870	0.2783203125	27.513535930535	-0.00459136962890625	0.27923583984375
871	0.27587890625	27.5379359304734	-0.00453826904296875	0.2767333984375
872	0.2734375	27.5623359304118	-0.00459259033203125	0.27435302734375
873	0.27099609375	27.5867359303502	-0.00454071044921875	0.27178955078125
874	0.2685546875	27.6111359302886	-0.00458160400390625	0.269378662109375
875	0.26611328125	27.635535930227	-0.00455322265625	0.266998291015625
876	0.263671875	27.6599359301654	-0.004561767578125	0.26446533203125
877	0.26123046875	27.6843359301038	-0.0045697021484375	0.262176513671875
878	0.2587890625	27.7087359300422	-0.004542236328125	0.25958251953125
879	0.25634765625	27.7331359299806	-0.00458251953125	0.257232666015625
880	0.25390625	27.757535929919	-0.00452972412109375	0.25469970703125
881	0.25146484375	27.7819359298574	-0.00458404541015625	0.252349853515625
882	0.2490234375	27.8063359297958	-0.004530029296875	0.2498779296875
883	0.24658203125	27.8307359297341	-0.00457427978515625	0.2474365234375
884	0.244140625	27.8551359296725	-0.00454193115234375	0.245025634765625
885	0.24169921875	27.8795359296109	-0.00455596923828125	0.242584228515625
886	0.2392578125	27.9039359295493	-0.00455963134765625	0.2401123046875
887	0.23681640625	27.9283359294877	-0.0045367431640625	0.23760986328125
888	0.234375	27.9527359294261	-0.0045745849609375	0.23529052734375
889	0.23193359375	27.9771359293645	-0.00452392578125	0.23272705078125
890	0.2294921875	28.0015359293029	-0.00457916259765625	0.23040771484375
891	0.22705078125	28.0259359292413	-0.004525146484375	0.2279052734375
892	0.224609375	28.0503359291797	-0.0045733642578125	0.225433349609375
893	0.22216796875	28.0747359291181	-0.00453887939453125	0.2230224609375
894	0.2197265625	28.0991359290565	-0.00455963134765625	0.2205810546875
895	0.21728515625	28.1235359289949	-0.004560546875	0.218170166015625
896	0.21484375	28.1479359289333	-0.0045458984375	0.215667724609375
897	0.21240234375	28.1723359288717	-0.00458282470703125	0.21331787109375
898	0.2099609375	28.1967359288101	-0.00453857421875	0.2108154296875
899	0.20751953125	28.2211359287485	-0.00459442138671875	0.208404541015625
900	0.205078125	28.2455359286869	-0.0045416259765625	0.2059326171875
901	0.20263671875	28.2699359286253	-0.00459320068359375	0.2034912109375
902	0.2001953125	28.2943359285637	-0.0045562744140625	0.20111083984375
903	0.19775390625	28.3187359285021	-0.0045819091796875	0.1986083984375
904	0.1953125	28.3431359284405	-0.00457794189453125	0.1961669921875
905	0.19287109375	28.3675359283789	-0.00456695556640625	0.19366455078125
906	0.1904296875	28.3919359283173	-0.004598388671875	0.19134521484375
907	0.18798828125	28.4163359282556	-0.004556884765625	0.188812255859375
908	0.185546875	28.440735928194	-0.00460968017578125	0.18646240234375
909	0.18310546875	28.4651359281324	-0.00455596923828125	0.1839599609375
910	0.1806640625	28.4895359280708	-0.00460784912109375	0.181640625
911	0.17822265625	28.5139359280092	-0.004566650390625	0.179107666015625
912	0.17578125	28.5383359279476	-0.0045953369140625	0.176666259765625
913	0.17333984375	28.562735927886	-0.00458465576171875	0.174224853515625
914	0.1708984375	28.5871359278244	-0.00457794189453125	0.17181396484375
915	0.16845703125	28.6115359277628	-0.00460296630859375	0.169403076171875
916	0.166015625	28.6359359277012	-0.0045635986328125	0.1668701171875
917	0.16357421875	28.6603359276396	-0.00461273193359375	0.16448974609375
918	0.1611328125	28.684735927578	-0.00455810546875	0.162017822265625
919	0.15869140625	28.7091359275164	-0.0046099853515625	0.159576416015625
920	0.15625	28.7335359274548	-0.004564208984375	0.157135009765625
921	0.15380859375	28.7579359273932	-0.00459625244140625	0.15472412109375
922	0.1513671875	28.7823359273316	-0.00457916259765625	0.15228271484375
923	0.14892578125	28.80673592727	-0.0045770263671875	0.1497802734375
924	0.146484375	28.8311359272084	-0.0045965576171875	0.147491455078125
925	0.14404296875	28.8555359271468	-0.00456024169921875	0.1448974609375
926	0.1416015625	28.8799359270852	-0.00460723876953125	0.142608642578125
927	0.13916015625	28.9043359270236	-0.00455322265625	0.140045166015625
928	0.13671875	28.928735926962	-0.00460693359375	0.137664794921875
929	0.13427734375	28.9531359269004	-0.004559326171875	0.135162353515625
930	0.1318359375	28.9775359268388	-0.004595947265625	0.1326904296875
931	0.12939453125	29.0019359267772	-0.00457550048828125	0.130279541015625
932	0.126953125	29.0263359267155	-0.00457916259765625	0.127777099609375
933	0.12451171875	29.0507359266539	-0.0045953369140625	0.12542724609375
934	0.1220703125	29.0751359265923	-0.004564208984375	0.122955322265625
935	0.11962890625	29.0995359265307	-0.004609375	0.120574951171875
936	0.1171875	29.1239359264691	-0.00455780029296875	0.118072509765625
937	0.11474609375	29.1483359264075	-0.004613037109375	0.115692138671875
938	0.1123046875	29.1727359263459	-0.00456390380859375	0.113250732421875
939	0.10986328125	29.1971359262843	-0.0046051025390625	0.11077880859375
940	0.107421875	29.2215359262227	-0.00458038330078125	0.1083984375
941	0.10498046875	29.2459359261611	-0.0045892333984375	0.1058349609375
942	0.1025390625	29.2703359260995	-0.00460052490234375	0.10345458984375
943	0.10009765625	29.2947359260379	-0.00457366943359375	0.100982666015625
944	0.09765625	29.3191359259763	-0.004615478515625	0.098663330078125
945	0.09521484375	29.3435359259147	-0.00456512451171875	0.0960693359375
946	0.0927734375	29.3679359258531	-0.0046197509765625	0.09368896484375
947	0.09033203125	29.3923359257915	-0.00456787109375	0.091278076171875
948	0.087890625	29.4167359257299	-0.004610595703125	0.088775634765625
949	0.08544921875	29.4411359256683	-0.00458038330078125	0.086334228515625
950	0.0830078125	29.4655359256067	-0.00459381103515625	0.083953857421875
951	0.08056640625	29.4899359255451	-0.00459869384765625	0.081573486328125
952	0.078125	29.5143359254835	-0.00457611083984375	0.0789794921875
953	0.07568359375	29.5387359254219	-0.00461334228515625	0.07666015625
954	0.0732421875	29.5631359253603	-0.00456390380859375	0.074127197265625
955	0.07080078125	29.5875359252987	-0.0046173095703125	0.07177734375
956	0.068359375	29.611935925237	-0.00456390380859375	0.06927490234375
957	0.06591796875	29.6363359251754	-0.00461029052734375	0.066864013671875
958	0.0634765625	29.6607359251138	-0.00457611083984375	0.064453125
959	0.06103515625	29.6851359250522	-0.00459503173828125	0.06201171875
960	0.05859375	29.7095359249906	-0.00459442138671875	0.05950927734375
961	0.05615234375	29.733935924929	-0.00457672119140625	0.057037353515625
962	0.0537109375	29.7583359248674	-0.00461090087890625	0.05474853515625
963	0.05126953125	29.7827359248058	-0.0045654296875	0.0521240234375
964	0.048828125	29.8071359247442	-0.0046185302734375	0.049774169921875
965	0.04638671875	29.8315359246826	-0.0045654296875	0.046600341796875
966	0.0439453125	29.855935924621	-0.00461517333984375	0.04420166015625
967	0.04150390625	29.8803359245594	-0.00457733154296875	0.04171142578125
968	0.0390625	29.9047359244978	-0.004603271484375	0.0392913818359375
969	0.03662109375	29.9291359244362	-0.00459686279296875	0.03687744140625
970	0.0341796875	29.9535359243746	-0.00458709716796875	0.0343780517578125
971	0.03173828125	29.977935924313	-0.004615478515625	0.0319915771484375
972	0.029296875	30.0023359242514	-0.0045751953125	0.0294921875
973	0.02685546875	30.0267359241898	-0.00462677001953125	0.027117919921875
974	0.0244140625	30.0511359241282	-0.0045733642578125	0.0246246337890625
975	0.02197265625	30.0755359240666	-0.0046246337890625	0.022235107421875
976	0.01953125	30.099935924005	-0.00458251953125	0.0197296142578125
977	0.01708984375	30.1243359239434	-0.0046124267578125	0.0173126220703125
978	0.0146484375	30.1487359238818	-0.0046002197265625	0.0148895263671875
979	0.01220703125	30.1731359238202	-0.00459564208984375	0.01241455078125
980	0.009765625	30.1975359237586	-0.004617919921875	0.010009765625
981	0.00732421875	30.2219359236969	-0.0045806884765625	0.00751342773437499
982	0.0048828125	30.2463359236353	-0.0046282958984375	0.00515136718750001
983	0.00244140625	30.2707359235737	-0.0045745849609375	0.00264892578125001
984	0	30.2951359235121	-0.00462615966796875	0.000274658203125
985	0.00244140625	30.3195359234505	-0.0045782470703125	0.00266418457031251
986	0.0048828125	30.3439359233889	-0.00460968017578125	0.0051239013671875
