Index	Potential applied (V)	Time (s)	WE(1).Current (A)	WE(1).Potential (V)
1	0.00244140625	235.720185404864	-0.0029962158203125	0.0026214599609375
2	0.0048828125	235.744585404802	-0.00298614501953125	0.0051116943359375
3	0.00732421875	235.768985404741	-0.00297210693359375	0.00749816894531249
4	0.009765625	235.793385404679	-0.0030072021484375	0.010009765625
5	0.01220703125	235.817785404617	-0.0029510498046875	0.012359619140625
6	0.0146484375	235.842185404556	-0.0030126953125	0.0148834228515625
7	0.01708984375	235.866585404494	-0.00294464111328125	0.0172607421875
8	0.01953125	235.890985404433	-0.0030010986328125	0.0197357177734375
9	0.02197265625	235.915385404371	-0.00295562744140625	0.02215576171875
10	0.0244140625	235.939785404309	-0.00297698974609375	0.02459716796875
11	0.02685546875	235.964185404248	-0.0029766845703125	0.0270721435546875
12	0.029296875	235.988585404186	-0.0029498291015625	0.029449462890625
13	0.03173828125	236.012985404124	-0.00299346923828125	0.031982421875
14	0.0341796875	236.037385404063	-0.00293212890625	0.0343292236328125
15	0.03662109375	236.061785404001	-0.00299560546875	0.0368377685546875
16	0.0390625	236.08618540394	-0.00293182373046875	0.0392242431640625
17	0.04150390625	236.110585403878	-0.00298187255859375	0.0417327880859375
18	0.0439453125	236.134985403816	-0.00294830322265625	0.0441314697265625
19	0.04638671875	236.159385403755	-0.002957763671875	0.0465606689453125
20	0.048828125	236.183785403693	-0.0029730224609375	0.049407958984375
21	0.05126953125	236.208185403632	-0.00293426513671875	0.051788330078125
22	0.0537109375	236.23258540357	-0.002989501953125	0.0543212890625
23	0.05615234375	236.256985403508	-0.00292510986328125	0.05670166015625
24	0.05859375	236.281385403447	-0.00298980712890625	0.05914306640625
25	0.06103515625	236.305785403385	-0.0029327392578125	0.06158447265625
26	0.0634765625	236.330185403324	-0.0029730224609375	0.063995361328125
27	0.06591796875	236.354585403262	-0.0029541015625	0.066497802734375
28	0.068359375	236.3789854032	-0.00294921875	0.068817138671875
29	0.07080078125	236.403385403139	-0.00297760009765625	0.071441650390625
30	0.0732421875	236.427785403077	-0.00292938232421875	0.07373046875
31	0.07568359375	236.452185403016	-0.00298980712890625	0.076324462890625
32	0.078125	236.476585402954	-0.00292327880859375	0.078643798828125
33	0.08056640625	236.500985402892	-0.0029840087890625	0.08111572265625
34	0.0830078125	236.525385402831	-0.0029339599609375	0.08349609375
35	0.08544921875	236.549785402769	-0.00296295166015625	0.085968017578125
36	0.087890625	236.574185402708	-0.0029559326171875	0.088409423828125
37	0.09033203125	236.598585402646	-0.00293792724609375	0.0908203125
38	0.0927734375	236.622985402584	-0.00297637939453125	0.093414306640625
39	0.09521484375	236.647385402523	-0.00291961669921875	0.095703125
40	0.09765625	236.671785402461	-0.002982177734375	0.098236083984375
41	0.10009765625	236.6961854024	-0.00291534423828125	0.100555419921875
42	0.1025390625	236.720585402338	-0.002969970703125	0.10308837890625
43	0.10498046875	236.744985402276	-0.00292816162109375	0.10546875
44	0.107421875	236.769385402215	-0.002945556640625	0.107879638671875
45	0.10986328125	236.793785402153	-0.00294952392578125	0.1103515625
46	0.1123046875	236.818185402092	-0.0029193115234375	0.112762451171875
47	0.11474609375	236.84258540203	-0.00296661376953125	0.11529541015625
48	0.1171875	236.866985401968	-0.0029034423828125	0.11767578125
49	0.11962890625	236.891385401907	-0.00296722412109375	0.1202392578125
50	0.1220703125	236.915785401845	-0.0029046630859375	0.12255859375
51	0.12451171875	236.940185401784	-0.0029522705078125	0.125030517578125
52	0.126953125	236.964585401722	-0.00292327880859375	0.12744140625
53	0.12939453125	236.98898540166	-0.0029302978515625	0.129852294921875
54	0.1318359375	237.013385401599	-0.00294769287109375	0.132354736328125
55	0.13427734375	237.037785401537	-0.00290740966796875	0.134765625
56	0.13671875	237.062185401476	-0.002962646484375	0.137298583984375
57	0.13916015625	237.086585401414	-0.00289794921875	0.139617919921875
58	0.1416015625	237.110985401352	-0.00296142578125	0.142120361328125
59	0.14404296875	237.135385401291	-0.00290618896484375	0.144500732421875
60	0.146484375	237.159785401229	-0.002945556640625	0.14697265625
61	0.14892578125	237.184185401167	-0.00292816162109375	0.1494140625
62	0.1513671875	237.208585401106	-0.00292266845703125	0.15185546875
63	0.15380859375	237.232985401044	-0.00295166015625	0.15435791015625
64	0.15625	237.257385400983	-0.00290283203125	0.156707763671875
65	0.15869140625	237.281785400921	-0.00296295166015625	0.15924072265625
66	0.1611328125	237.306185400859	-0.002896728515625	0.161590576171875
67	0.16357421875	237.330585400798	-0.0029571533203125	0.1640625
68	0.166015625	237.354985400736	-0.00290863037109375	0.166473388671875
69	0.16845703125	237.379385400675	-0.00293792724609375	0.1689453125
70	0.1708984375	237.403785400613	-0.00293060302734375	0.171417236328125
71	0.17333984375	237.428185400551	-0.00291168212890625	0.17376708984375
72	0.17578125	237.45258540049	-0.00294830322265625	0.176300048828125
73	0.17822265625	237.476985400428	-0.00289154052734375	0.178680419921875
74	0.1806640625	237.501385400367	-0.00295318603515625	0.18115234375
75	0.18310546875	237.525785400305	-0.0028875732421875	0.18353271484375
76	0.185546875	237.550185400243	-0.00294036865234375	0.186065673828125
77	0.18798828125	237.574585400182	-0.0028997802734375	0.188446044921875
78	0.1904296875	237.59898540012	-0.00291656494140625	0.19091796875
79	0.19287109375	237.623385400059	-0.00292144775390625	0.193359375
80	0.1953125	237.647785399997	-0.00289093017578125	0.19573974609375
81	0.19775390625	237.672185399935	-0.00293701171875	0.1982421875
82	0.2001953125	237.696585399874	-0.0028753662109375	0.20062255859375
83	0.20263671875	237.720985399812	-0.00293914794921875	0.203125
84	0.205078125	237.745385399751	-0.00287811279296875	0.20550537109375
85	0.20751953125	237.769785399689	-0.0029254150390625	0.20794677734375
86	0.2099609375	237.794185399627	-0.00289581298828125	0.21044921875
87	0.21240234375	237.818585399566	-0.00290130615234375	0.212860107421875
88	0.21484375	237.842985399504	-0.00291900634765625	0.215301513671875
89	0.21728515625	237.867385399443	-0.002879638671875	0.217681884765625
90	0.2197265625	237.891785399381	-0.00293426513671875	0.22021484375
91	0.22216796875	237.916185399319	-0.002869873046875	0.22259521484375
92	0.224609375	237.940585399258	-0.002933349609375	0.225067138671875
93	0.22705078125	237.964985399196	-0.00287811279296875	0.227447509765625
94	0.2294921875	237.989385399135	-0.00291748046875	0.22991943359375
95	0.23193359375	238.013785399073	-0.0028985595703125	0.232391357421875
96	0.234375	238.038185399011	-0.00289215087890625	0.234832763671875
97	0.23681640625	238.06258539895	-0.0029193115234375	0.237396240234375
98	0.2392578125	238.086985398888	-0.0028704833984375	0.23968505859375
99	0.24169921875	238.111385398827	-0.00292816162109375	0.242218017578125
100	0.244140625	238.135785398765	-0.00286285400390625	0.2445068359375
101	0.24658203125	238.160185398703	-0.00292144775390625	0.2470703125
102	0.2490234375	238.184585398642	-0.0028729248046875	0.24951171875
103	0.25146484375	238.20898539858	-0.00290252685546875	0.25189208984375
104	0.25390625	238.233385398519	-0.00289398193359375	0.254364013671875
105	0.25634765625	238.257785398457	-0.0028765869140625	0.25677490234375
106	0.2587890625	238.282185398395	-0.00291290283203125	0.25927734375
107	0.26123046875	238.306585398334	-0.00285858154296875	0.261688232421875
108	0.263671875	238.330985398272	-0.00292205810546875	0.264190673828125
109	0.26611328125	238.355385398211	-0.00285797119140625	0.26654052734375
110	0.2685546875	238.379785398149	-0.0029132080078125	0.268951416015625
111	0.27099609375	238.404185398087	-0.00287384033203125	0.271453857421875
112	0.2734375	238.428585398026	-0.0028912353515625	0.2738037109375
113	0.27587890625	238.452985397964	-0.0028948974609375	0.27630615234375
114	0.2783203125	238.477385397902	-0.0028656005859375	0.27874755859375
115	0.28076171875	238.501785397841	-0.0029119873046875	0.281280517578125
116	0.283203125	238.526185397779	-0.0028509521484375	0.283599853515625
117	0.28564453125	238.550585397718	-0.0029144287109375	0.2861328125
118	0.2880859375	238.574985397656	-0.0028546142578125	0.288543701171875
119	0.29052734375	238.599385397594	-0.00290313720703125	0.29095458984375
120	0.29296875	238.623785397533	-0.00287384033203125	0.293426513671875
121	0.29541015625	238.648185397471	-0.0028802490234375	0.2957763671875
122	0.2978515625	238.67258539741	-0.002896728515625	0.29833984375
123	0.30029296875	238.696985397348	-0.00285888671875	0.3006591796875
124	0.302734375	238.721385397286	-0.00291259765625	0.30316162109375
125	0.30517578125	238.745785397225	-0.00284759521484375	0.30560302734375
126	0.3076171875	238.770185397163	-0.00290985107421875	0.308074951171875
127	0.31005859375	238.794585397102	-0.00285308837890625	0.310455322265625
128	0.3125	238.81898539704	-0.00289215087890625	0.312957763671875
129	0.31494140625	238.843385396978	-0.00287200927734375	0.31536865234375
130	0.3173828125	238.867785396917	-0.00286590576171875	0.3177490234375
131	0.31982421875	238.892185396855	-0.00289276123046875	0.320281982421875
132	0.322265625	238.916585396794	-0.00284454345703125	0.3226318359375
133	0.32470703125	238.940985396732	-0.0029022216796875	0.3251953125
134	0.3271484375	238.96538539667	-0.00283660888671875	0.327545166015625
135	0.32958984375	238.989785396609	-0.00289520263671875	0.330108642578125
136	0.33203125	239.014185396547	-0.00284576416015625	0.33245849609375
137	0.33447265625	239.038585396486	-0.00287445068359375	0.334869384765625
138	0.3369140625	239.062985396424	-0.0028656005859375	0.337371826171875
139	0.33935546875	239.087385396362	-0.00284759521484375	0.33978271484375
140	0.341796875	239.111785396301	-0.00288238525390625	0.342315673828125
141	0.34423828125	239.136185396239	-0.0028265380859375	0.344635009765625
142	0.3466796875	239.160585396178	-0.00288665771484375	0.347137451171875
143	0.34912109375	239.184985396116	-0.0028216552734375	0.349517822265625
144	0.3515625	239.209385396054	-0.00287628173828125	0.352020263671875
145	0.35400390625	239.233785395993	-0.00283416748046875	0.35443115234375
146	0.3564453125	239.258185395931	-0.0028515625	0.356842041015625
147	0.35888671875	239.28258539587	-0.00285491943359375	0.359375
148	0.361328125	239.306985395808	-0.0028271484375	0.361663818359375
149	0.36376953125	239.331385395746	-0.002872314453125	0.3642578125
150	0.3662109375	239.355785395685	-0.0028125	0.3665771484375
151	0.36865234375	239.380185395623	-0.00287567138671875	0.36907958984375
152	0.37109375	239.404585395562	-0.00281463623046875	0.37152099609375
153	0.37353515625	239.4289853955	-0.00286285400390625	0.373992919921875
154	0.3759765625	239.453385395438	-0.00283294677734375	0.37640380859375
155	0.37841796875	239.477785395377	-0.00284088134765625	0.378753662109375
156	0.380859375	239.502185395315	-0.0028564453125	0.381317138671875
157	0.38330078125	239.526585395254	-0.00281890869140625	0.3836669921875
158	0.3857421875	239.550985395192	-0.00287109375	0.38623046875
159	0.38818359375	239.57538539513	-0.0028076171875	0.38861083984375
160	0.390625	239.599785395069	-0.0028704833984375	0.391082763671875
161	0.39306640625	239.624185395007	-0.00281524658203125	0.393585205078125
162	0.3955078125	239.648585394945	-0.00285400390625	0.3958740234375
163	0.39794921875	239.672985394884	-0.00283416748046875	0.398406982421875
164	0.400390625	239.697385394822	-0.002828369140625	0.4007568359375
165	0.40283203125	239.721785394761	-0.0028558349609375	0.4033203125
166	0.4052734375	239.746185394699	-0.00280792236328125	0.4056396484375
167	0.40771484375	239.770585394637	-0.002864990234375	0.408203125
168	0.41015625	239.794985394576	-0.00279937744140625	0.41058349609375
169	0.41259765625	239.819385394514	-0.00285736083984375	0.412994384765625
170	0.4150390625	239.843785394453	-0.00280792236328125	0.415435791015625
171	0.41748046875	239.868185394391	-0.00283447265625	0.41790771484375
172	0.419921875	239.892585394329	-0.002825927734375	0.420379638671875
173	0.42236328125	239.916985394268	-0.0028082275390625	0.42266845703125
174	0.4248046875	239.941385394206	-0.00284271240234375	0.42523193359375
175	0.42724609375	239.965785394145	-0.00278778076171875	0.4276123046875
176	0.4296875	239.990185394083	-0.00284637451171875	0.430145263671875
177	0.43212890625	240.014585394021	-0.0027825927734375	0.4324951171875
178	0.4345703125	240.03898539396	-0.00283538818359375	0.43499755859375
179	0.43701171875	240.063385393898	-0.00279388427734375	0.437408447265625
180	0.439453125	240.087785393837	-0.002811279296875	0.439910888671875
181	0.44189453125	240.112185393775	-0.00281463623046875	0.44232177734375
182	0.4443359375	240.136585393713	-0.00278717041015625	0.4447021484375
183	0.44677734375	240.160985393652	-0.00283111572265625	0.44720458984375
184	0.44921875	240.18538539359	-0.002772216796875	0.449615478515625
185	0.45166015625	240.209785393529	-0.00283447265625	0.45208740234375
186	0.4541015625	240.234185393467	-0.0027752685546875	0.45452880859375
187	0.45654296875	240.258585393405	-0.002821044921875	0.4569091796875
188	0.458984375	240.282985393344	-0.002791748046875	0.459381103515625
189	0.46142578125	240.307385393282	-0.00279693603515625	0.4617919921875
190	0.4638671875	240.331785393221	-0.0028118896484375	0.464324951171875
191	0.46630859375	240.356185393159	-0.00277435302734375	0.466644287109375
192	0.46875	240.380585393097	-0.00282867431640625	0.469146728515625
193	0.47119140625	240.404985393036	-0.002764892578125	0.471527099609375
194	0.4736328125	240.429385392974	-0.00282562255859375	0.47406005859375
195	0.47607421875	240.453785392913	-0.00277008056640625	0.4764404296875
196	0.478515625	240.478185392851	-0.002808837890625	0.4788818359375
197	0.48095703125	240.502585392789	-0.00278839111328125	0.481353759765625
198	0.4833984375	240.526985392728	-0.00278228759765625	0.4837646484375
199	0.48583984375	240.551385392666	-0.0028076171875	0.486236572265625
200	0.48828125	240.575785392605	-0.0027606201171875	0.48858642578125
201	0.49072265625	240.600185392543	-0.0028179931640625	0.4910888671875
202	0.4931640625	240.624585392481	-0.0027520751953125	0.493499755859375
203	0.49560546875	240.64898539242	-0.002808837890625	0.496002197265625
204	0.498046875	240.673385392358	-0.00275848388671875	0.498443603515625
205	0.50048828125	240.697785392297	-0.00278533935546875	0.500762939453125
206	0.5029296875	240.722185392235	-0.0027752685546875	0.5032958984375
207	0.50537109375	240.746585392173	-0.00275787353515625	0.50567626953125
208	0.5078125	240.770985392112	-0.00279144287109375	0.508148193359375
209	0.51025390625	240.79538539205	-0.00273681640625	0.51055908203125
210	0.5126953125	240.819785391988	-0.0027947998046875	0.5130615234375
211	0.51513671875	240.844185391927	-0.00273101806640625	0.51544189453125
212	0.517578125	240.868585391865	-0.00278228759765625	0.517974853515625
213	0.52001953125	240.892985391804	-0.00274139404296875	0.520355224609375
214	0.5224609375	240.917385391742	-0.0027587890625	0.52276611328125
215	0.52490234375	240.94178539168	-0.00275970458984375	0.5252685546875
216	0.52734375	240.966185391619	-0.00273193359375	0.52764892578125
217	0.52978515625	240.990585391557	-0.002774658203125	0.530181884765625
218	0.5322265625	241.014985391496	-0.002716064453125	0.53253173828125
219	0.53466796875	241.039385391434	-0.00277496337890625	0.5350341796875
220	0.537109375	241.063785391372	-0.0027154541015625	0.537445068359375
221	0.53955078125	241.088185391311	-0.00276092529296875	0.539886474609375
222	0.5419921875	241.112585391249	-0.0027288818359375	0.5423583984375
223	0.54443359375	241.136985391188	-0.00273590087890625	0.544769287109375
224	0.546875	241.161385391126	-0.00274810791015625	0.547271728515625
225	0.54931640625	241.185785391064	-0.0027105712890625	0.549591064453125
226	0.5517578125	241.210185391003	-0.00276153564453125	0.552215576171875
227	0.55419921875	241.234585390941	-0.00269805908203125	0.554473876953125
228	0.556640625	241.25898539088	-0.00275726318359375	0.556976318359375
229	0.55908203125	241.283385390818	-0.00269989013671875	0.559417724609375
230	0.5615234375	241.307785390756	-0.00273590087890625	0.561859130859375
231	0.56396484375	241.332185390695	-0.00271392822265625	0.5643310546875
232	0.56640625	241.356585390633	-0.00270843505859375	0.566680908203125
233	0.56884765625	241.380985390572	-0.0027301025390625	0.56927490234375
234	0.5712890625	241.40538539051	-0.00268280029296875	0.57159423828125
235	0.57373046875	241.429785390448	-0.002734375	0.5740966796875
236	0.576171875	241.454185390387	-0.002669677734375	0.576446533203125
237	0.57861328125	241.478585390325	-0.002723388671875	0.57891845703125
238	0.5810546875	241.502985390264	-0.002672119140625	0.58135986328125
239	0.58349609375	241.527385390202	-0.00269775390625	0.583770751953125
240	0.5859375	241.55178539014	-0.00268402099609375	0.5863037109375
241	0.58837890625	241.576185390079	-0.00266632080078125	0.588623046875
242	0.5908203125	241.600585390017	-0.002696533203125	0.5911865234375
243	0.59326171875	241.624985389956	-0.00264190673828125	0.593536376953125
244	0.595703125	241.649385389894	-0.00269561767578125	0.5960693359375
245	0.59814453125	241.673785389832	-0.00263092041015625	0.598480224609375
246	0.6005859375	241.698185389771	-0.00268096923828125	0.60089111328125
247	0.60302734375	241.722585389709	-0.0026373291015625	0.6033935546875
248	0.60546875	241.746985389648	-0.002652587890625	0.605712890625
249	0.60791015625	241.771385389586	-0.00265106201171875	0.608184814453125
250	0.6103515625	241.795785389524	-0.00262481689453125	0.610595703125
251	0.61279296875	241.820185389463	-0.00266326904296875	0.61309814453125
252	0.615234375	241.844585389401	-0.00260406494140625	0.615509033203125
253	0.61767578125	241.86898538934	-0.0026605224609375	0.6180419921875
254	0.6201171875	241.893385389278	-0.002598876953125	0.62042236328125
255	0.62255859375	241.917785389216	-0.002642822265625	0.62286376953125
256	0.625	241.942185389155	-0.002608642578125	0.625274658203125
257	0.62744140625	241.966585389093	-0.00261444091796875	0.62774658203125
258	0.6298828125	241.990985389031	-0.002620849609375	0.6302490234375
259	0.63232421875	242.01538538897	-0.00258544921875	0.632537841796875
260	0.634765625	242.039785388908	-0.00262969970703125	0.635101318359375
261	0.63720703125	242.064185388847	-0.002567138671875	0.637451171875
262	0.6396484375	242.088585388785	-0.00262115478515625	0.6400146484375
263	0.64208984375	242.112985388723	-0.002562255859375	0.642303466796875
264	0.64453125	242.137385388662	-0.00259857177734375	0.644866943359375
265	0.64697265625	242.1617853886	-0.00257110595703125	0.647216796875
266	0.6494140625	242.186185388539	-0.00256622314453125	0.649658203125
267	0.65185546875	242.210585388477	-0.00258148193359375	0.652099609375
268	0.654296875	242.234985388415	-0.0025360107421875	0.654541015625
269	0.65673828125	242.259385388354	-0.00258270263671875	0.656982421875
270	0.6591796875	242.283785388292	-0.00251708984375	0.659423828125
271	0.66162109375	242.308185388231	-0.00256744384765625	0.661895751953125
272	0.6640625	242.332585388169	-0.00251312255859375	0.664276123046875
273	0.66650390625	242.356985388107	-0.0025384521484375	0.666717529296875
274	0.6689453125	242.381385388046	-0.00251861572265625	0.669219970703125
275	0.67138671875	242.405785387984	-0.00250274658203125	0.671600341796875
276	0.673828125	242.430185387923	-0.00252593994140625	0.674072265625
277	0.67626953125	242.454585387861	-0.00247283935546875	0.676422119140625
278	0.6787109375	242.478985387799	-0.0025201416015625	0.678955078125
279	0.68115234375	242.503385387738	-0.00245330810546875	0.68133544921875
280	0.68359375	242.527785387676	-0.0025006103515625	0.683837890625
281	0.68603515625	242.552185387615	-0.00245147705078125	0.68621826171875
282	0.6884765625	242.576585387553	-0.00246978759765625	0.688690185546875
283	0.69091796875	242.600985387491	-0.002459716796875	0.69110107421875
284	0.693359375	242.62538538743	-0.0024346923828125	0.693511962890625
285	0.69580078125	242.649785387368	-0.00246368408203125	0.696075439453125
286	0.6982421875	242.674185387307	-0.00240631103515625	0.698394775390625
287	0.70068359375	242.698585387245	-0.00245574951171875	0.70086669921875
288	0.703125	242.722985387183	-0.0023919677734375	0.703277587890625
289	0.70556640625	242.747385387122	-0.0024322509765625	0.70574951171875
290	0.7080078125	242.77178538706	-0.002391357421875	0.70819091796875
291	0.71044921875	242.796185386999	-0.002398681640625	0.710662841796875
292	0.712890625	242.820585386937	-0.00239654541015625	0.713043212890625
293	0.71533203125	242.844985386875	-0.00236328125	0.7154541015625
294	0.7177734375	242.869385386814	-0.002396240234375	0.71795654296875
295	0.72021484375	242.893785386752	-0.00233642578125	0.72039794921875
296	0.72265625	242.918185386691	-0.00238433837890625	0.72283935546875
297	0.72509765625	242.942585386629	-0.0023223876953125	0.725250244140625
298	0.7275390625	242.966985386567	-0.00235504150390625	0.72772216796875
299	0.72998046875	242.991385386506	-0.00231842041015625	0.730133056640625
300	0.732421875	243.015785386444	-0.00231353759765625	0.732574462890625
301	0.73486328125	243.040185386383	-0.00231475830078125	0.73504638671875
302	0.7373046875	243.064585386321	-0.00227203369140625	0.7374267578125
303	0.73974609375	243.088985386259	-0.002305908203125	0.739959716796875
304	0.7421875	243.113385386198	-0.00224212646484375	0.7423095703125
305	0.74462890625	243.137785386136	-0.00228271484375	0.7447509765625
306	0.7470703125	243.162185386074	-0.00222503662109375	0.747222900390625
307	0.74951171875	243.186585386013	-0.00224700927734375	0.749664306640625
308	0.751953125	243.210985385951	-0.00221832275390625	0.75103759765625
309	0.75439453125	243.23538538589	-0.002205810546875	0.7537841796875
310	0.7568359375	243.259785385828	-0.00221221923828125	0.75592041015625
311	0.75927734375	243.284185385766	-0.0021624755859375	0.7586669921875
312	0.76171875	243.308585385705	-0.002196044921875	0.76141357421875
313	0.76416015625	243.332985385643	-0.002132568359375	0.76324462890625
314	0.7666015625	243.357385385582	-0.0021673583984375	0.7659912109375
315	0.76904296875	243.38178538552	-0.00211273193359375	0.7684326171875
316	0.771484375	243.406185385458	-0.002127685546875	0.7708740234375
317	0.77392578125	243.430585385397	-0.00210296630859375	0.7733154296875
318	0.7763671875	243.454985385335	-0.002081298828125	0.77545166015625
319	0.77880859375	243.479385385274	-0.0020941162109375	0.77789306640625
320	0.78125	243.503785385212	-0.0020379638671875	0.78033447265625
321	0.78369140625	243.52818538515	-0.0020721435546875	0.782470703125
322	0.7861328125	243.552585385089	-0.0020074462890625	0.7855224609375
323	0.78857421875	243.576985385027	-0.0020367431640625	0.787353515625
324	0.791015625	243.601385384966	-0.0019854736328125	0.789794921875
325	0.79345703125	243.625785384904	-0.00198883056640625	0.79254150390625
326	0.7958984375	243.650185384842	-0.0019696044921875	0.79498291015625
327	0.79833984375	243.674585384781	-0.00194000244140625	0.797119140625
328	0.80078125	243.698985384719	-0.0019512939453125	0.8001708984375
329	0.80322265625	243.723385384658	-0.0018896484375	0.80230712890625
330	0.8056640625	243.747785384596	-0.00191925048828125	0.804443359375
331	0.80810546875	243.772185384534	-0.00185455322265625	0.80718994140625
332	0.810546875	243.796585384473	-0.001876220703125	0.8099365234375
333	0.81298828125	243.820985384411	-0.00182708740234375	0.811767578125
334	0.8154296875	243.84538538435	-0.0018182373046875	0.81451416015625
335	0.81787109375	243.869785384288	-0.00180206298828125	0.8172607421875
336	0.8203125	243.894185384226	-0.0017620849609375	0.8197021484375
337	0.82275390625	243.918585384165	-0.00177459716796875	0.8221435546875
338	0.8251953125	243.942985384103	-0.00170806884765625	0.8245849609375
339	0.82763671875	243.967385384042	-0.0017303466796875	0.8270263671875
340	0.830078125	243.99178538398	-0.00166748046875	0.8294677734375
341	0.83251953125	244.016185383918	-0.00167877197265625	0.831298828125
342	0.8349609375	244.040585383857	-0.001634521484375	0.833740234375
343	0.83740234375	244.064985383795	-0.00161529541015625	0.8367919921875
344	0.83984375	244.089385383734	-0.001602783203125	0.83892822265625
345	0.84228515625	244.113785383672	-0.00155487060546875	0.841064453125
346	0.8447265625	244.13818538361	-0.00156463623046875	0.8441162109375
347	0.84716796875	244.162585383549	-0.001497802734375	0.845947265625
348	0.849609375	244.186985383487	-0.001514892578125	0.8489990234375
349	0.85205078125	244.211385383426	-0.00145416259765625	0.85113525390625
350	0.8544921875	244.235785383364	-0.00145660400390625	0.85418701171875
351	0.85693359375	244.260185383302	-0.0014166259765625	0.855712890625
352	0.859375	244.284585383241	-0.00138763427734375	0.85845947265625
353	0.86181640625	244.308985383179	-0.00137603759765625	0.86090087890625
354	0.8642578125	244.333385383118	-0.00132232666015625	0.8642578125
355	0.86669921875	244.357785383056	-0.00133087158203125	0.865478515625
356	0.869140625	244.382185382994	-0.00126190185546875	0.8685302734375
357	0.87158203125	244.406585382933	-0.00126983642578125	0.87066650390625
358	0.8740234375	244.430985382871	-0.00121185302734375	0.87371826171875
359	0.87646484375	244.455385382809	-0.001202392578125	0.87554931640625
360	0.87890625	244.479785382748	-0.001165771484375	0.877685546875
361	0.88134765625	244.504185382686	-0.0011285400390625	0.8807373046875
362	0.8837890625	244.528585382625	-0.0011163330078125	0.8831787109375
363	0.88623046875	244.552985382563	-0.00105804443359375	0.88531494140625
364	0.888671875	244.577385382501	-0.00105926513671875	0.887451171875
365	0.89111328125	244.60178538244	-0.0009912109375	0.89019775390625
366	0.8935546875	244.626185382378	-0.00098876953125	0.89263916015625
367	0.89599609375	244.650585382317	-0.00093231201171875	0.894775390625
368	0.8984375	244.674985382255	-0.00091278076171875	0.897216796875
369	0.90087890625	244.699385382193	-0.0008770751953125	0.89935302734375
370	0.9033203125	244.723785382132	-0.00083038330078125	0.90240478515625
371	0.90576171875	244.74818538207	-0.00081451416015625	0.9051513671875
372	0.908203125	244.772585382009	-0.00075347900390625	0.906982421875
373	0.91064453125	244.796985381947	-0.0007489013671875	0.9100341796875
374	0.9130859375	244.821385381885	-0.00068023681640625	0.9124755859375
375	0.91552734375	244.845785381824	-0.00066680908203125	0.914306640625
376	0.91796875	244.870185381762	-0.00061309814453125	0.916748046875
377	0.92041015625	244.894585381701	-0.000584716796875	0.9197998046875
378	0.9228515625	244.918985381639	-0.00054901123046875	0.92193603515625
379	0.92529296875	244.943385381577	-0.00049652099609375	0.924072265625
380	0.927734375	244.967785381516	-0.000478546142578125	0.92742919921875
381	0.93017578125	244.992185381454	-0.00041473388671875	0.92987060546875
382	0.9326171875	245.016585381393	-0.000402099609375	0.93170166015625
383	0.93505859375	245.040985381331	-0.000337066650390625	0.9344482421875
384	0.9375	245.065385381269	-0.000313323974609375	0.93719482421875
385	0.93994140625	245.089785381208	-0.000260711669921875	0.93963623046875
386	0.9423828125	245.114185381146	-0.000222869873046875	0.94146728515625
387	0.94482421875	245.138585381085	-0.000186737060546875	0.9442138671875
388	0.947265625	245.162985381023	-0.000128173828125	0.94635009765625
389	0.94970703125	245.187385380961	-0.000106414794921875	0.9490966796875
390	0.9521484375	245.2117853809	-4.1107177734375E-05	0.9515380859375
391	0.95458984375	245.236185380838	-2.127685546875E-05	0.95367431640625
392	0.95703125	245.260585380777	4.473876953125E-05	0.9564208984375
393	0.95947265625	245.284985380715	7.6934814453125E-05	0.95855712890625
394	0.9619140625	245.309385380653	0.000129241943359375	0.96099853515625
395	0.96435546875	245.333785380592	0.000173980712890625	0.9637451171875
396	0.966796875	245.35818538053	0.00021148681640625	0.96588134765625
397	0.96923828125	245.382585380469	0.000276885986328125	0.96832275390625
398	0.9716796875	245.406985380407	0.00030499267578125	0.97076416015625
399	0.97412109375	245.431385380345	0.000371856689453125	0.9735107421875
400	0.9765625	245.455785380284	0.00039935302734375	0.97564697265625
401	0.97900390625	245.480185380222	0.0004659423828125	0.97808837890625
402	0.9814453125	245.504585380161	0.00050750732421875	0.97991943359375
403	0.98388671875	245.528985380099	0.000560302734375	0.98297119140625
404	0.986328125	245.553385380037	0.00061309814453125	0.98541259765625
405	0.98876953125	245.577785379976	0.000654296875	0.98785400390625
406	0.9912109375	245.602185379914	0.0007220458984375	0.989990234375
407	0.99365234375	245.626585379852	0.0007574462890625	0.99273681640625
408	0.99609375	245.650985379791	0.00082550048828125	0.99517822265625
409	0.99853515625	245.675385379729	0.00086212158203125	0.9979248046875
410	1.0009765625	245.699785379668	0.00092926025390625	0.999755859375
411	1.00341796875	245.724185379606	0.00097686767578125	1.0028076171875
412	1.005859375	245.748585379544	0.00103179931640625	1.004638671875
413	1.00830078125	245.772985379483	0.0010882568359375	1.007080078125
414	1.0107421875	245.797385379421	0.0011334228515625	1.00982666015625
415	1.01318359375	245.82178537936	0.00120513916015625	1.011962890625
416	1.015625	245.846185379298	0.001246337890625	1.0150146484375
417	1.01806640625	245.870585379236	0.0013165283203125	1.01715087890625
418	1.0205078125	245.894985379175	0.00135955810546875	1.019287109375
419	1.02294921875	245.919385379113	0.00142669677734375	1.02203369140625
420	1.025390625	245.943785379052	0.0014825439453125	1.024169921875
421	1.02783203125	245.96818537899	0.0015386962890625	1.026611328125
422	1.0302734375	245.992585378928	0.0016021728515625	1.02935791015625
423	1.03271484375	246.016985378867	0.00165069580078125	1.03179931640625
424	1.03515625	246.041385378805	0.00172607421875	1.03485107421875
425	1.03759765625	246.065785378744	0.00177337646484375	1.036376953125
426	1.0400390625	246.090185378682	0.00184417724609375	1.03912353515625
427	1.04248046875	246.11458537862	0.00189300537109375	1.041259765625
428	1.044921875	246.138985378559	0.00196197509765625	1.04339599609375
429	1.04736328125	246.163385378497	0.00202423095703125	1.046142578125
430	1.0498046875	246.187785378436	0.00208465576171875	1.048583984375
431	1.05224609375	246.212185378374	0.0021514892578125	1.0516357421875
432	1.0546875	246.236585378312	0.0022052001953125	1.053466796875
433	1.05712890625	246.260985378251	0.00228271484375	1.05621337890625
434	1.0595703125	246.285385378189	0.00233734130859375	1.05865478515625
435	1.06201171875	246.309785378128	0.0024102783203125	1.0614013671875
436	1.064453125	246.334185378066	0.0024664306640625	1.06414794921875
437	1.06689453125	246.358585378004	0.00253753662109375	1.065673828125
438	1.0693359375	246.382985377943	0.0026055908203125	1.068115234375
439	1.07177734375	246.407385377881	0.00266845703125	1.07086181640625
440	1.07421875	246.43178537782	0.0027386474609375	1.072998046875
441	1.07666015625	246.456185377758	0.0027972412109375	1.07635498046875
442	1.0791015625	246.480585377696	0.002877197265625	1.077880859375
443	1.08154296875	246.504985377635	0.0029376220703125	1.08062744140625
444	1.083984375	246.529385377573	0.003011474609375	1.08306884765625
445	1.08642578125	246.553785377512	0.00307342529296875	1.08551025390625
446	1.0888671875	246.57818537745	0.003145751953125	1.08795166015625
447	1.09130859375	246.602585377388	0.0032183837890625	1.09100341796875
448	1.09375	246.626985377327	0.00328277587890625	1.09283447265625
449	1.09619140625	246.651385377265	0.00335601806640625	1.09527587890625
450	1.0986328125	246.675785377204	0.00341796875	1.097412109375
451	1.10107421875	246.700185377142	0.0034979248046875	1.10015869140625
452	1.103515625	246.72458537708	0.0035614013671875	1.102294921875
453	1.10595703125	246.748985377019	0.00363433837890625	1.10443115234375
454	1.1083984375	246.773385376957	0.003697509765625	1.10748291015625
455	1.11083984375	246.797785376895	0.00376708984375	1.10992431640625
456	1.11328125	246.822185376834	0.0038385009765625	1.11236572265625
457	1.11572265625	246.846585376772	0.0039007568359375	1.11480712890625
458	1.1181640625	246.870985376711	0.003968505859375	1.11724853515625
459	1.12060546875	246.895385376649	0.00402496337890625	1.11968994140625
460	1.123046875	246.919785376587	0.00409423828125	1.12213134765625
461	1.12548828125	246.944185376526	0.00415008544921875	1.124267578125
462	1.1279296875	246.968585376464	0.00420989990234375	1.12640380859375
463	1.13037109375	246.992985376403	0.00426177978515625	1.12884521484375
464	1.1328125	247.017385376341	0.00431488037109375	1.13189697265625
465	1.13525390625	247.041785376279	0.00436920166015625	1.134033203125
466	1.1376953125	247.066185376218	0.004415283203125	1.13677978515625
467	1.14013671875	247.090585376156	0.00446258544921875	1.13922119140625
468	1.142578125	247.114985376095	0.004503173828125	1.1419677734375
469	1.14501953125	247.139385376033	0.00454986572265625	1.143798828125
470	1.1474609375	247.163785375971	0.004588623046875	1.1468505859375
471	1.14990234375	247.18818537591	0.00462799072265625	1.148681640625
472	1.15234375	247.212585375848	0.00466339111328125	1.15142822265625
473	1.15478515625	247.236985375787	0.00469879150390625	1.153564453125
474	1.1572265625	247.261385375725	0.00473541259765625	1.156005859375
475	1.15966796875	247.285785375663	0.0047662353515625	1.158447265625
476	1.162109375	247.310185375602	0.00479827880859375	1.16119384765625
477	1.16455078125	247.33458537554	0.0048260498046875	1.16363525390625
478	1.1669921875	247.358985375479	0.0048577880859375	1.165771484375
479	1.16943359375	247.383385375417	0.00488525390625	1.16790771484375
480	1.171875	247.407785375355	0.0049127197265625	1.1712646484375
481	1.17431640625	247.432185375294	0.00493804931640625	1.17340087890625
482	1.1767578125	247.456585375232	0.00496307373046875	1.17584228515625
483	1.17919921875	247.480985375171	0.0049896240234375	1.17828369140625
484	1.181640625	247.505385375109	0.00501220703125	1.18072509765625
485	1.18408203125	247.529785375047	0.00503570556640625	1.18316650390625
486	1.1865234375	247.554185374986	0.0050567626953125	1.18560791015625
487	1.18896484375	247.578585374924	0.00508026123046875	1.187744140625
488	1.19140625	247.602985374863	0.005101318359375	1.190185546875
489	1.19384765625	247.627385374801	0.00512237548828125	1.19293212890625
490	1.1962890625	247.651785374739	0.00514190673828125	1.195068359375
491	1.19873046875	247.676185374678	0.0051611328125	1.19781494140625
492	1.201171875	247.700585374616	0.00518157958984375	1.1993408203125
493	1.19873046875	247.724985374555	0.005159912109375	1.197509765625
494	1.1962890625	247.749385374493	0.0051385498046875	1.19537353515625
495	1.19384765625	247.773785374431	0.00511505126953125	1.192626953125
496	1.19140625	247.79818537437	0.0050933837890625	1.1907958984375
497	1.18896484375	247.822585374308	0.00506988525390625	1.187744140625
498	1.1865234375	247.846985374247	0.0050457763671875	1.18499755859375
499	1.18408203125	247.871385374185	0.00502044677734375	1.18316650390625
500	1.181640625	247.895785374123	0.00499420166015625	1.18011474609375
501	1.17919921875	247.920185374062	0.0049700927734375	1.177978515625
502	1.1767578125	247.944585374	0.00494110107421875	1.17584228515625
503	1.17431640625	247.968985373938	0.00491363525390625	1.173095703125
504	1.171875	247.993385373877	0.0048822021484375	1.170654296875
505	1.16943359375	248.017785373815	0.00485382080078125	1.16912841796875
506	1.1669921875	248.042185373754	0.00482208251953125	1.165771484375
507	1.16455078125	248.066585373692	0.00478912353515625	1.16363525390625
508	1.162109375	248.09098537363	0.00475433349609375	1.16119384765625
509	1.15966796875	248.115385373569	0.00471710205078125	1.15875244140625
510	1.1572265625	248.139785373507	0.00468353271484375	1.156005859375
511	1.15478515625	248.164185373446	0.00464111328125	1.15386962890625
512	1.15234375	248.188585373384	0.00460235595703125	1.151123046875
513	1.14990234375	248.212985373322	0.00455535888671875	1.1492919921875
514	1.1474609375	248.237385373261	0.00451263427734375	1.14593505859375
515	1.14501953125	248.261785373199	0.0044659423828125	1.14410400390625
516	1.142578125	248.286185373138	0.0044146728515625	1.1419677734375
517	1.14013671875	248.310585373076	0.0043634033203125	1.138916015625
518	1.1376953125	248.334985373014	0.00430419921875	1.1370849609375
519	1.13525390625	248.359385372953	0.00425384521484375	1.134033203125
520	1.1328125	248.383785372891	0.0041876220703125	1.1322021484375
521	1.13037109375	248.40818537283	0.0041290283203125	1.13006591796875
522	1.1279296875	248.432585372768	0.0040570068359375	1.12701416015625
523	1.12548828125	248.456985372706	0.00399322509765625	1.12457275390625
524	1.123046875	248.481385372645	0.00392486572265625	1.1224365234375
525	1.12060546875	248.505785372583	0.003851318359375	1.11968994140625
526	1.1181640625	248.530185372522	0.00378143310546875	1.11663818359375
527	1.11572265625	248.55458537246	0.0036993408203125	1.11419677734375
528	1.11328125	248.578985372398	0.00363677978515625	1.11175537109375
529	1.11083984375	248.603385372337	0.0035528564453125	1.109619140625
530	1.1083984375	248.627785372275	0.00348388671875	1.107177734375
531	1.10595703125	248.652185372214	0.00340057373046875	1.104736328125
532	1.103515625	248.676585372152	0.00332855224609375	1.10260009765625
533	1.10107421875	248.70098537209	0.0032562255859375	1.10015869140625
534	1.0986328125	248.725385372029	0.00317596435546875	1.097412109375
535	1.09619140625	248.749785371967	0.003106689453125	1.094970703125
536	1.09375	248.774185371906	0.003021240234375	1.09283447265625
537	1.09130859375	248.798585371844	0.00296142578125	1.09039306640625
538	1.0888671875	248.822985371782	0.00287689208984375	1.087646484375
539	1.08642578125	248.847385371721	0.00281158447265625	1.08551025390625
540	1.083984375	248.871785371659	0.0027301025390625	1.082763671875
541	1.08154296875	248.896185371598	0.00266021728515625	1.08062744140625
542	1.0791015625	248.920585371536	0.00259307861328125	1.07818603515625
543	1.07666015625	248.944985371474	0.002513427734375	1.07574462890625
544	1.07421875	248.969385371413	0.0024505615234375	1.0736083984375
545	1.07177734375	248.993785371351	0.00236602783203125	1.0711669921875
546	1.0693359375	249.01818537129	0.00231170654296875	1.06903076171875
547	1.06689453125	249.042585371228	0.0022296142578125	1.06536865234375
548	1.064453125	249.066985371166	0.0021685791015625	1.063232421875
549	1.06201171875	249.091385371105	0.00209259033203125	1.06109619140625
550	1.0595703125	249.115785371043	0.0020245361328125	1.05865478515625
551	1.05712890625	249.140185370981	0.0019647216796875	1.05621337890625
552	1.0546875	249.16458537092	0.00188690185546875	1.05377197265625
553	1.05224609375	249.188985370858	0.0018316650390625	1.0516357421875
554	1.0498046875	249.213385370797	0.00174896240234375	1.048583984375
555	1.04736328125	249.237785370735	0.0016998291015625	1.0467529296875
556	1.044921875	249.262185370673	0.00162200927734375	1.04400634765625
557	1.04248046875	249.286585370612	0.001566162109375	1.041259765625
558	1.0400390625	249.31098537055	0.00149627685546875	1.03912353515625
559	1.03759765625	249.335385370489	0.0014306640625	1.03668212890625
560	1.03515625	249.359785370427	0.001378173828125	1.0345458984375
561	1.03271484375	249.384185370365	0.001300048828125	1.03179931640625
562	1.0302734375	249.408585370304	0.0012530517578125	1.02935791015625
563	1.02783203125	249.432985370242	0.00117218017578125	1.02691650390625
564	1.025390625	249.457385370181	0.00113006591796875	1.02447509765625
565	1.02294921875	249.481785370119	0.00105712890625	1.021728515625
566	1.0205078125	249.506185370057	0.00100555419921875	1.0198974609375
567	1.01806640625	249.530585369996	0.00094207763671875	1.0174560546875
568	1.015625	249.554985369934	0.00087799072265625	1.01470947265625
569	1.01318359375	249.579385369873	0.0008343505859375	1.01287841796875
570	1.0107421875	249.603785369811	0.00075927734375	1.00982666015625
571	1.00830078125	249.628185369749	0.000721435546875	1.007080078125
572	1.005859375	249.652585369688	0.00064361572265625	1.00494384765625
573	1.00341796875	249.676985369626	0.00060821533203125	1.002197265625
574	1.0009765625	249.701385369565	0.000540771484375	1.00006103515625
575	0.99853515625	249.725785369503	0.0004925537109375	0.99700927734375
576	0.99609375	249.750185369441	0.000438751220703125	0.994873046875
577	0.99365234375	249.77458536938	0.00037548828125	0.9930419921875
578	0.9912109375	249.798985369318	0.000343017578125	0.989990234375
579	0.98876953125	249.823385369257	0.000269256591796875	0.98785400390625
580	0.986328125	249.847785369195	0.000241058349609375	0.986328125
581	0.98388671875	249.872185369133	0.00016632080078125	0.98297119140625
582	0.9814453125	249.896585369072	0.000136962890625	0.98052978515625
583	0.97900390625	249.92098536901	7.6080322265625E-05	0.9783935546875
584	0.9765625	249.945385368949	2.9693603515625E-05	0.97564697265625
585	0.97412109375	249.969785368887	-1.334228515625E-05	0.972900390625
586	0.9716796875	249.994185368825	-7.5531005859375E-05	0.970458984375
587	0.96923828125	250.018585368764	-9.8876953125E-05	0.968017578125
588	0.966796875	250.042985368702	-0.0001715087890625	0.96588134765625
589	0.96435546875	250.067385368641	-0.00019036865234375	0.9637451171875
590	0.9619140625	250.091785368579	-0.0002630615234375	0.960693359375
591	0.95947265625	250.116185368517	-0.000286468505859375	0.9588623046875
592	0.95703125	250.140585368456	-0.0003406982421875	0.955810546875
593	0.95458984375	250.164985368394	-0.000383758544921875	0.95367431640625
594	0.9521484375	250.189385368333	-0.00041778564453125	0.9515380859375
595	0.94970703125	250.213785368271	-0.000479888916015625	0.9490966796875
596	0.947265625	250.238185368209	-0.000491943359375	0.94635009765625
597	0.94482421875	250.262585368148	-0.0005633544921875	0.94390869140625
598	0.9423828125	250.286985368086	-0.0005731201171875	0.94207763671875
599	0.93994140625	250.311385368025	-0.00064056396484375	0.93902587890625
600	0.9375	250.335785367963	-0.0006610107421875	0.93658447265625
601	0.93505859375	250.360185367901	-0.00070648193359375	0.933837890625
602	0.9326171875	250.38458536784	-0.00074859619140625	0.9320068359375
603	0.93017578125	250.408985367778	-0.000771484375	0.928955078125
604	0.927734375	250.433385367716	-0.000833740234375	0.92681884765625
605	0.92529296875	250.457785367655	-0.00083526611328125	0.92376708984375
606	0.9228515625	250.482185367593	-0.00090484619140625	0.9222412109375
607	0.92041015625	250.506585367532	-0.00090789794921875	0.919189453125
608	0.91796875	250.53098536747	-0.00096954345703125	0.91705322265625
609	0.91552734375	250.555385367408	-0.0009857177734375	0.914306640625
610	0.9130859375	250.579785367347	-0.00102203369140625	0.911865234375
611	0.91064453125	250.604185367285	-0.001064453125	0.90911865234375
612	0.908203125	250.628585367224	-0.0010760498046875	0.90728759765625
613	0.90576171875	250.652985367162	-0.00113922119140625	0.90484619140625
614	0.9033203125	250.6773853671	-0.00113128662109375	0.9027099609375
615	0.90087890625	250.701785367039	-0.0011993408203125	0.89996337890625
616	0.8984375	250.726185366977	-0.0011944580078125	0.897216796875
617	0.89599609375	250.750585366916	-0.0012518310546875	0.894775390625
618	0.8935546875	250.774985366854	-0.00126556396484375	0.8929443359375
619	0.89111328125	250.799385366792	-0.00129302978515625	0.889892578125
620	0.888671875	250.823785366731	-0.0013372802734375	0.88836669921875
621	0.88623046875	250.848185366669	-0.00133819580078125	0.88531494140625
622	0.8837890625	250.872585366608	-0.0014019775390625	0.88287353515625
623	0.88134765625	250.896985366546	-0.0013848876953125	0.88043212890625
624	0.87890625	250.921385366484	-0.0014520263671875	0.8782958984375
625	0.87646484375	250.945785366423	-0.00144378662109375	0.8758544921875
626	0.8740234375	250.970185366361	-0.00149261474609375	0.87310791015625
627	0.87158203125	250.9945853663	-0.0015081787109375	0.870361328125
628	0.869140625	251.018985366238	-0.0015234375	0.867919921875
629	0.86669921875	251.043385366176	-0.00157073974609375	0.86578369140625
630	0.8642578125	251.067785366115	-0.0015594482421875	0.86334228515625
631	0.86181640625	251.092185366053	-0.0016259765625	0.8612060546875
632	0.859375	251.116585365992	-0.00160064697265625	0.8587646484375
633	0.85693359375	251.14098536593	-0.0016656494140625	0.85601806640625
634	0.8544921875	251.165385365868	-0.0016546630859375	0.8538818359375
635	0.85205078125	251.189785365807	-0.00169708251953125	0.8514404296875
636	0.849609375	251.214185365745	-0.00171356201171875	0.84869384765625
637	0.84716796875	251.238585365684	-0.00171905517578125	0.8465576171875
638	0.8447265625	251.262985365622	-0.00176727294921875	0.843505859375
639	0.84228515625	251.28738536556	-0.001748046875	0.8416748046875
640	0.83984375	251.311785365499	-0.00181304931640625	0.83892822265625
641	0.83740234375	251.336185365437	-0.00178436279296875	0.836181640625
642	0.8349609375	251.360585365376	-0.00184356689453125	0.83465576171875
643	0.83251953125	251.384985365314	-0.00183135986328125	0.831298828125
644	0.830078125	251.409385365252	-0.00186492919921875	0.82916259765625
645	0.82763671875	251.433785365191	-0.00188629150390625	0.826416015625
646	0.8251953125	251.458185365129	-0.0018829345703125	0.8251953125
647	0.82275390625	251.482585365068	-0.0019354248046875	0.82244873046875
648	0.8203125	251.506985365006	-0.00190521240234375	0.819091796875
649	0.81787109375	251.531385364944	-0.0019720458984375	0.8172607421875
650	0.8154296875	251.555785364883	-0.00193939208984375	0.814208984375
651	0.81298828125	251.580185364821	-0.00199493408203125	0.811767578125
652	0.810546875	251.604585364759	-0.00198455810546875	0.80963134765625
653	0.80810546875	251.628985364698	-0.00200958251953125	0.8074951171875
654	0.8056640625	251.653385364636	-0.00203582763671875	0.804443359375
655	0.80322265625	251.677785364575	-0.00201995849609375	0.80230712890625
656	0.80078125	251.702185364513	-0.002076416015625	0.8001708984375
657	0.79833984375	251.726585364451	-0.00204010009765625	0.7977294921875
658	0.7958984375	251.75098536439	-0.0021075439453125	0.79498291015625
659	0.79345703125	251.775385364328	-0.00207275390625	0.7928466796875
660	0.791015625	251.799785364267	-0.0021234130859375	0.79010009765625
661	0.78857421875	251.824185364205	-0.00211639404296875	0.7879638671875
662	0.7861328125	251.848585364143	-0.00213043212890625	0.7855224609375
663	0.78369140625	251.872985364082	-0.002161865234375	0.7830810546875
664	0.78125	251.89738536402	-0.0021368408203125	0.7806396484375
665	0.77880859375	251.921785363959	-0.00219818115234375	0.777587890625
666	0.7763671875	251.946185363897	-0.00215789794921875	0.7763671875
667	0.77392578125	251.970585363835	-0.0022216796875	0.77301025390625
668	0.771484375	251.994985363774	-0.00218841552734375	0.770263671875
669	0.76904296875	252.019385363712	-0.00223175048828125	0.76812744140625
670	0.7666015625	252.043785363651	-0.00223052978515625	0.7659912109375
671	0.76416015625	252.068185363589	-0.002235107421875	0.76324462890625
672	0.76171875	252.092585363527	-0.00227294921875	0.7611083984375
673	0.75927734375	252.116985363466	-0.00224090576171875	0.75897216796875
674	0.7568359375	252.141385363404	-0.00230438232421875	0.7568359375
675	0.75439453125	252.165785363343	-0.00225921630859375	0.75408935546875
676	0.751953125	252.190185363281	-0.00232177734375	0.750732421875
677	0.74951171875	252.214585363219	-0.00229034423828125	0.7496337890625
678	0.7470703125	252.238985363158	-0.00232391357421875	0.747222900390625
679	0.74462890625	252.263385363096	-0.00233062744140625	0.74481201171875
680	0.7421875	252.287785363035	-0.00232452392578125	0.7423095703125
681	0.73974609375	252.312185362973	-0.0023699951171875	0.739959716796875
682	0.7373046875	252.336585362911	-0.002330322265625	0.737457275390625
683	0.73486328125	252.36098536285	-0.0023944091796875	0.73504638671875
684	0.732421875	252.385385362788	-0.0023492431640625	0.732574462890625
685	0.72998046875	252.409785362727	-0.00240570068359375	0.730133056640625
686	0.7275390625	252.434185362665	-0.00237884521484375	0.727691650390625
687	0.72509765625	252.458585362603	-0.002403564453125	0.725341796875
688	0.72265625	252.482985362542	-0.00241668701171875	0.722869873046875
689	0.72021484375	252.50738536248	-0.00240142822265625	0.720367431640625
690	0.7177734375	252.531785362419	-0.0024505615234375	0.718017578125
691	0.71533203125	252.556185362357	-0.00240631103515625	0.715484619140625
692	0.712890625	252.580585362295	-0.002471923828125	0.71307373046875
693	0.71044921875	252.604985362234	-0.002425537109375	0.7105712890625
694	0.7080078125	252.629385362172	-0.00247772216796875	0.708160400390625
695	0.70556640625	252.653785362111	-0.00245758056640625	0.7056884765625
696	0.703125	252.678185362049	-0.0024725341796875	0.7032470703125
697	0.70068359375	252.702585361987	-0.0024945068359375	0.700927734375
698	0.6982421875	252.726985361926	-0.00246917724609375	0.698394775390625
699	0.69580078125	252.751385361864	-0.0025250244140625	0.69598388671875
700	0.693359375	252.775785361802	-0.00247467041015625	0.6934814453125
701	0.69091796875	252.800185361741	-0.00253936767578125	0.691162109375
702	0.6884765625	252.824585361679	-0.00249420166015625	0.688629150390625
703	0.68603515625	252.848985361618	-0.00254119873046875	0.686279296875
704	0.68359375	252.873385361556	-0.0025262451171875	0.683807373046875
705	0.68115234375	252.897785361494	-0.00253326416015625	0.681365966796875
706	0.6787109375	252.922185361433	-0.00256072998046875	0.678924560546875
707	0.67626953125	252.946585361371	-0.0025274658203125	0.676422119140625
708	0.673828125	252.97098536131	-0.00258758544921875	0.674072265625
709	0.67138671875	252.995385361248	-0.00253326416015625	0.671600341796875
710	0.6689453125	253.019785361186	-0.0025958251953125	0.669219970703125
711	0.66650390625	253.044185361125	-0.00255462646484375	0.666717529296875
712	0.6640625	253.068585361063	-0.00259368896484375	0.664337158203125
713	0.66162109375	253.092985361002	-0.002586669921875	0.661865234375
714	0.6591796875	253.11738536094	-0.00258453369140625	0.659393310546875
715	0.65673828125	253.141785360878	-0.00262054443359375	0.657012939453125
716	0.654296875	253.166185360817	-0.00257965087890625	0.654510498046875
717	0.65185546875	253.190585360755	-0.00264190673828125	0.652130126953125
718	0.6494140625	253.214985360694	-0.0025860595703125	0.64971923828125
719	0.64697265625	253.239385360632	-0.002646484375	0.647247314453125
720	0.64453125	253.26378536057	-0.0026092529296875	0.644866943359375
721	0.64208984375	253.288185360509	-0.0026422119140625	0.642364501953125
722	0.6396484375	253.312585360447	-0.002642822265625	0.639984130859375
723	0.63720703125	253.336985360386	-0.00262939453125	0.637451171875
724	0.634765625	253.361385360324	-0.0026715087890625	0.63507080078125
725	0.63232421875	253.385785360262	-0.002625732421875	0.63262939453125
726	0.6298828125	253.410185360201	-0.002689208984375	0.63018798828125
727	0.62744140625	253.434585360139	-0.00263397216796875	0.627716064453125
728	0.625	253.458985360078	-0.0026910400390625	0.625274658203125
729	0.62255859375	253.483385360016	-0.0026593017578125	0.62286376953125
730	0.6201171875	253.507785359954	-0.00268096923828125	0.620391845703125
731	0.61767578125	253.532185359893	-0.00269073486328125	0.617950439453125
732	0.615234375	253.556585359831	-0.00266937255859375	0.615478515625
733	0.61279296875	253.58098535977	-0.00271759033203125	0.613189697265625
734	0.6103515625	253.605385359708	-0.00266510009765625	0.610595703125
735	0.60791015625	253.629785359646	-0.0027301025390625	0.6082763671875
736	0.60546875	253.654185359585	-0.00267547607421875	0.605804443359375
737	0.60302734375	253.678585359523	-0.00272674560546875	0.60333251953125
738	0.6005859375	253.702985359462	-0.0027008056640625	0.600982666015625
739	0.59814453125	253.7273853594	-0.00271240234375	0.59844970703125
740	0.595703125	253.751785359338	-0.0027294921875	0.59600830078125
741	0.59326171875	253.776185359277	-0.00269989013671875	0.59356689453125
742	0.5908203125	253.800585359215	-0.0027545166015625	0.5911865234375
743	0.58837890625	253.824985359154	-0.00269744873046875	0.58868408203125
744	0.5859375	253.849385359092	-0.00276214599609375	0.58624267578125
745	0.58349609375	253.87378535903	-0.002708740234375	0.58380126953125
746	0.5810546875	253.898185358969	-0.0027532958984375	0.581390380859375
747	0.57861328125	253.922585358907	-0.0027337646484375	0.57891845703125
748	0.576171875	253.946985358845	-0.00273681640625	0.576446533203125
749	0.57373046875	253.971385358784	-0.002762451171875	0.574127197265625
750	0.5712890625	253.995785358722	-0.00272369384765625	0.571624755859375
751	0.56884765625	254.020185358661	-0.002781982421875	0.5692138671875
752	0.56640625	254.044585358599	-0.002723388671875	0.566741943359375
753	0.56396484375	254.068985358537	-0.0027880859375	0.564300537109375
754	0.5615234375	254.093385358476	-0.00273895263671875	0.56182861328125
755	0.55908203125	254.117785358414	-0.0027777099609375	0.5594482421875
756	0.556640625	254.142185358353	-0.002767333984375	0.55706787109375
757	0.55419921875	254.166585358291	-0.00276153564453125	0.55450439453125
758	0.5517578125	254.190985358229	-0.00279510498046875	0.55218505859375
759	0.54931640625	254.215385358168	-0.0027490234375	0.54962158203125
760	0.546875	254.239785358106	-0.00281097412109375	0.54730224609375
761	0.54443359375	254.264185358045	-0.00275146484375	0.544769287109375
762	0.5419921875	254.288585357983	-0.002811279296875	0.542388916015625
763	0.53955078125	254.312985357921	-0.00276763916015625	0.5399169921875
764	0.537109375	254.33738535786	-0.00279754638671875	0.5374755859375
765	0.53466796875	254.361785357798	-0.00279327392578125	0.535064697265625
766	0.5322265625	254.386185357737	-0.00277984619140625	0.532562255859375
767	0.52978515625	254.410585357675	-0.00282073974609375	0.53021240234375
768	0.52734375	254.434985357613	-0.0027679443359375	0.527618408203125
769	0.52490234375	254.459385357552	-0.00283233642578125	0.525360107421875
770	0.5224609375	254.48378535749	-0.002772216796875	0.522796630859375
771	0.52001953125	254.508185357429	-0.002828369140625	0.520355224609375
772	0.517578125	254.532585357367	-0.00279052734375	0.517913818359375
773	0.51513671875	254.556985357305	-0.0028118896484375	0.5155029296875
774	0.5126953125	254.581385357244	-0.0028179931640625	0.513153076171875
775	0.51025390625	254.605785357182	-0.002794189453125	0.5106201171875
776	0.5078125	254.630185357121	-0.0028424072265625	0.508270263671875
777	0.50537109375	254.654585357059	-0.0027880859375	0.505706787109375
778	0.5029296875	254.678985356997	-0.00285400390625	0.50335693359375
779	0.50048828125	254.703385356936	-0.00279632568359375	0.5008544921875
780	0.498046875	254.727785356874	-0.00284912109375	0.498443603515625
781	0.49560546875	254.752185356813	-0.002818603515625	0.49591064453125
782	0.4931640625	254.776585356751	-0.00283203125	0.49346923828125
783	0.49072265625	254.800985356689	-0.00284637451171875	0.49114990234375
784	0.48828125	254.825385356628	-0.0028155517578125	0.488616943359375
785	0.48583984375	254.849785356566	-0.00286865234375	0.486297607421875
786	0.4833984375	254.874185356505	-0.00280914306640625	0.4837646484375
787	0.48095703125	254.898585356443	-0.00287506103515625	0.48138427734375
788	0.478515625	254.922985356381	-0.00281951904296875	0.478912353515625
789	0.47607421875	254.94738535632	-0.00286529541015625	0.47650146484375
790	0.4736328125	254.971785356258	-0.00284271240234375	0.474029541015625
791	0.47119140625	254.996185356197	-0.0028460693359375	0.471527099609375
792	0.46875	255.020585356135	-0.00286956787109375	0.469146728515625
793	0.46630859375	255.044985356073	-0.00282989501953125	0.4666748046875
794	0.4638671875	255.069385356012	-0.00288726806640625	0.4642333984375
795	0.46142578125	255.09378535595	-0.0028240966796875	0.461822509765625
796	0.458984375	255.118185355888	-0.00288818359375	0.459381103515625
797	0.45654296875	255.142585355827	-0.0028363037109375	0.456939697265625
798	0.4541015625	255.166985355765	-0.0028753662109375	0.4544677734375
799	0.45166015625	255.191385355704	-0.00286102294921875	0.45208740234375
800	0.44921875	255.215785355642	-0.00285614013671875	0.4495849609375
801	0.44677734375	255.24018535558	-0.00288665771484375	0.447174072265625
802	0.4443359375	255.264585355519	-0.00283935546875	0.4447021484375
803	0.44189453125	255.288985355457	-0.002901611328125	0.442291259765625
804	0.439453125	255.313385355396	-0.00283782958984375	0.4398193359375
805	0.43701171875	255.337785355334	-0.00289886474609375	0.43743896484375
806	0.4345703125	255.362185355272	-0.0028521728515625	0.4349365234375
807	0.43212890625	255.386585355211	-0.00288330078125	0.43255615234375
808	0.4296875	255.410985355149	-0.00287811279296875	0.430145263671875
809	0.42724609375	255.435385355088	-0.00286376953125	0.4276123046875
810	0.4248046875	255.459785355026	-0.0029034423828125	0.42529296875
811	0.42236328125	255.484185354964	-0.002850341796875	0.4227294921875
812	0.419921875	255.508585354903	-0.00291534423828125	0.42034912109375
813	0.41748046875	255.532985354841	-0.0028521728515625	0.4178466796875
814	0.4150390625	255.55738535478	-0.00291107177734375	0.415496826171875
815	0.41259765625	255.581785354718	-0.00287078857421875	0.41302490234375
816	0.41015625	255.606185354656	-0.00289398193359375	0.4105224609375
817	0.40771484375	255.630585354595	-0.00289703369140625	0.408172607421875
818	0.4052734375	255.654985354533	-0.00287261962890625	0.40570068359375
819	0.40283203125	255.679385354472	-0.00291900634765625	0.403350830078125
820	0.400390625	255.70378535441	-0.002861328125	0.4007568359375
821	0.39794921875	255.728185354348	-0.00292633056640625	0.398406982421875
822	0.3955078125	255.752585354287	-0.0028643798828125	0.39593505859375
823	0.39306640625	255.776985354225	-0.002916259765625	0.39349365234375
824	0.390625	255.801385354164	-0.0028826904296875	0.39105224609375
825	0.38818359375	255.825785354102	-0.0028955078125	0.3885498046875
826	0.3857421875	255.85018535404	-0.00290740966796875	0.38623046875
827	0.38330078125	255.874585353979	-0.00287445068359375	0.383636474609375
828	0.380859375	255.898985353917	-0.002926025390625	0.381317138671875
829	0.37841796875	255.923385353856	-0.0028656005859375	0.37884521484375
830	0.3759765625	255.947785353794	-0.00293060302734375	0.376434326171875
831	0.37353515625	255.972185353732	-0.0028717041015625	0.37396240234375
832	0.37109375	255.996585353671	-0.00291748046875	0.371490478515625
833	0.36865234375	256.020985353609	-0.002891845703125	0.369110107421875
834	0.3662109375	256.045385353548	-0.00289581298828125	0.36663818359375
835	0.36376953125	256.069785353486	-0.0029180908203125	0.3642578125
836	0.361328125	256.094185353424	-0.00287750244140625	0.36175537109375
837	0.35888671875	256.118585353363	-0.002935791015625	0.359405517578125
838	0.3564453125	256.142985353301	-0.00287261962890625	0.356842041015625
839	0.35400390625	256.16738535324	-0.002938232421875	0.354461669921875
840	0.3515625	256.191785353178	-0.002884521484375	0.352020263671875
841	0.34912109375	256.216185353116	-0.00292449951171875	0.349609375
842	0.3466796875	256.240585353055	-0.002908935546875	0.347137451171875
843	0.34423828125	256.264985352993	-0.0029052734375	0.34466552734375
844	0.341796875	256.289385352932	-0.00293548583984375	0.342315673828125
845	0.33935546875	256.31378535287	-0.00288818359375	0.33978271484375
846	0.3369140625	256.338185352808	-0.00294952392578125	0.33740234375
847	0.33447265625	256.362585352747	-0.00288604736328125	0.334869384765625
848	0.33203125	256.386985352685	-0.00294891357421875	0.33251953125
849	0.32958984375	256.411385352623	-0.0029010009765625	0.330047607421875
850	0.3271484375	256.435785352562	-0.0029339599609375	0.32757568359375
851	0.32470703125	256.4601853525	-0.002926025390625	0.325164794921875
852	0.322265625	256.484585352439	-0.002911376953125	0.322662353515625
853	0.31982421875	256.508985352377	-0.00294921875	0.3203125
854	0.3173828125	256.533385352315	-0.0028955078125	0.317840576171875
855	0.31494140625	256.557785352254	-0.002958984375	0.315521240234375
856	0.3125	256.582185352192	-0.00289459228515625	0.312896728515625
857	0.31005859375	256.606585352131	-0.00295166015625	0.310516357421875
858	0.3076171875	256.630985352069	-0.0029083251953125	0.308013916015625
859	0.30517578125	256.655385352007	-0.00293243408203125	0.305572509765625
860	0.302734375	256.679785351946	-0.00293243408203125	0.30316162109375
861	0.30029296875	256.704185351884	-0.00290985107421875	0.300750732421875
862	0.2978515625	256.728585351823	-0.0029534912109375	0.29833984375
863	0.29541015625	256.752985351761	-0.00289581298828125	0.295806884765625
864	0.29296875	256.777385351699	-0.00295989990234375	0.293426513671875
865	0.29052734375	256.801785351638	-0.0028973388671875	0.2908935546875
866	0.2880859375	256.826185351576	-0.00295074462890625	0.28851318359375
867	0.28564453125	256.850585351515	-0.0029156494140625	0.28607177734375
868	0.283203125	256.874985351453	-0.0029302978515625	0.283660888671875
869	0.28076171875	256.899385351391	-0.0029412841796875	0.281280517578125
870	0.2783203125	256.92378535133	-0.00291107177734375	0.27874755859375
871	0.27587890625	256.948185351268	-0.00296234130859375	0.276397705078125
872	0.2734375	256.972585351207	-0.00290191650390625	0.27386474609375
873	0.27099609375	256.996985351145	-0.00296783447265625	0.271484375
874	0.2685546875	257.021385351083	-0.002908935546875	0.26898193359375
875	0.26611328125	257.045785351022	-0.0029583740234375	0.2666015625
876	0.263671875	257.07018535096	-0.0029315185546875	0.26416015625
877	0.26123046875	257.094585350899	-0.002938232421875	0.261749267578125
878	0.2587890625	257.118985350837	-0.00295806884765625	0.25927734375
879	0.25634765625	257.143385350775	-0.00292022705078125	0.256683349609375
880	0.25390625	257.167785350714	-0.0029766845703125	0.25439453125
881	0.25146484375	257.192185350652	-0.0029132080078125	0.25189208984375
882	0.2490234375	257.216585350591	-0.0029791259765625	0.249542236328125
883	0.24658203125	257.240985350529	-0.00292236328125	0.247039794921875
884	0.244140625	257.265385350467	-0.00296539306640625	0.24462890625
885	0.24169921875	257.289785350406	-0.0029461669921875	0.242218017578125
886	0.2392578125	257.314185350344	-0.0029443359375	0.239654541015625
887	0.23681640625	257.338585350283	-0.00297088623046875	0.2373046875
888	0.234375	257.362985350221	-0.0029254150390625	0.2347412109375
889	0.23193359375	257.387385350159	-0.00298583984375	0.23248291015625
890	0.2294921875	257.411785350098	-0.00292022705078125	0.22991943359375
891	0.22705078125	257.436185350036	-0.00298309326171875	0.2275390625
892	0.224609375	257.460585349975	-0.0029315185546875	0.225067138671875
893	0.22216796875	257.484985349913	-0.0029656982421875	0.22265625
894	0.2197265625	257.509385349851	-0.0029547119140625	0.22021484375
895	0.21728515625	257.53378534979	-0.00294342041015625	0.217681884765625
896	0.21484375	257.558185349728	-0.00297882080078125	0.21533203125
897	0.21240234375	257.582585349666	-0.0029278564453125	0.21282958984375
898	0.2099609375	257.606985349605	-0.00299102783203125	0.21044921875
899	0.20751953125	257.631385349543	-0.002926025390625	0.2080078125
900	0.205078125	257.655785349482	-0.00298614501953125	0.20556640625
901	0.20263671875	257.68018534942	-0.002940673828125	0.203125
902	0.2001953125	257.704585349358	-0.00296783447265625	0.20062255859375
903	0.19775390625	257.728985349297	-0.00296600341796875	0.1982421875
904	0.1953125	257.753385349235	-0.0029461669921875	0.19573974609375
905	0.19287109375	257.777785349174	-0.00298828125	0.19342041015625
906	0.1904296875	257.802185349112	-0.00293182373046875	0.19085693359375
907	0.18798828125	257.82658534905	-0.00299774169921875	0.1884765625
908	0.185546875	257.850985348989	-0.00293365478515625	0.18597412109375
909	0.18310546875	257.875385348927	-0.00299041748046875	0.18359375
910	0.1806640625	257.899785348866	-0.00295196533203125	0.181182861328125
911	0.17822265625	257.924185348804	-0.0029718017578125	0.1787109375
912	0.17578125	257.948585348742	-0.0029779052734375	0.17633056640625
913	0.17333984375	257.972985348681	-0.002950439453125	0.173828125
914	0.1708984375	257.997385348619	-0.0029998779296875	0.17144775390625
915	0.16845703125	258.021785348558	-0.00293914794921875	0.168975830078125
916	0.166015625	258.046185348496	-0.00300567626953125	0.16650390625
917	0.16357421875	258.070585348434	-0.0029443359375	0.164093017578125
918	0.1611328125	258.094985348373	-0.00299591064453125	0.16162109375
919	0.15869140625	258.119385348311	-0.0029644775390625	0.1591796875
920	0.15625	258.14378534825	-0.00297576904296875	0.156707763671875
921	0.15380859375	258.168185348188	-0.00299072265625	0.154327392578125
922	0.1513671875	258.192585348126	-0.0029547119140625	0.15179443359375
923	0.14892578125	258.216985348065	-0.00300872802734375	0.14947509765625
924	0.146484375	258.241385348003	-0.002945556640625	0.14691162109375
925	0.14404296875	258.265785347942	-0.00301177978515625	0.144561767578125
926	0.1416015625	258.29018534788	-0.0029534912109375	0.142120361328125
927	0.13916015625	258.314585347818	-0.00299774169921875	0.139678955078125
928	0.13671875	258.338985347757	-0.00297454833984375	0.13726806640625
929	0.13427734375	258.363385347695	-0.0029754638671875	0.134796142578125
930	0.1318359375	258.387785347634	-0.002999267578125	0.132415771484375
931	0.12939453125	258.412185347572	-0.0029559326171875	0.1298828125
932	0.126953125	258.43658534751	-0.00301422119140625	0.1275634765625
933	0.12451171875	258.460985347449	-0.00294891357421875	0.125
934	0.1220703125	258.485385347387	-0.00301361083984375	0.12261962890625
935	0.11962890625	258.509785347326	-0.00295989990234375	0.12017822265625
936	0.1171875	258.534185347264	-0.002996826171875	0.117706298828125
937	0.11474609375	258.558585347202	-0.00298248291015625	0.115325927734375
938	0.1123046875	258.582985347141	-0.00297393798828125	0.11279296875
939	0.10986328125	258.607385347079	-0.0030059814453125	0.1104736328125
940	0.107421875	258.631785347018	-0.00295654296875	0.10791015625
941	0.10498046875	258.656185346956	-0.0030194091796875	0.1055908203125
942	0.1025390625	258.680585346894	-0.0029541015625	0.103057861328125
943	0.10009765625	258.704985346833	-0.00301605224609375	0.100616455078125
944	0.09765625	258.729385346771	-0.0029681396484375	0.09820556640625
945	0.09521484375	258.753785346709	-0.0029986572265625	0.095733642578125
946	0.0927734375	258.778185346648	-0.00299285888671875	0.093353271484375
947	0.09033203125	258.802585346586	-0.00297637939453125	0.0908203125
948	0.087890625	258.826985346525	-0.003017578125	0.08843994140625
949	0.08544921875	258.851385346463	-0.002962646484375	0.0859375
950	0.0830078125	258.875785346401	-0.00302886962890625	0.0836181640625
951	0.08056640625	258.90018534634	-0.00296478271484375	0.0810546875
952	0.078125	258.924585346278	-0.00302337646484375	0.07867431640625
953	0.07568359375	258.948985346217	-0.00298187255859375	0.076202392578125
954	0.0732421875	258.973385346155	-0.00300445556640625	0.07373046875
955	0.07080078125	258.997785346093	-0.0030084228515625	0.0714111328125
956	0.068359375	259.022185346032	-0.00298309326171875	0.068878173828125
957	0.06591796875	259.04658534597	-0.00303009033203125	0.06646728515625
958	0.0634765625	259.070985345909	-0.00296966552734375	0.06396484375
959	0.06103515625	259.095385345847	-0.003037109375	0.061614990234375
960	0.05859375	259.119785345785	-0.00297332763671875	0.05914306640625
961	0.05615234375	259.144185345724	-0.00302642822265625	0.056671142578125
962	0.0537109375	259.168585345662	-0.0029913330078125	0.054290771484375
963	0.05126953125	259.192985345601	-0.00300323486328125	0.051727294921875
964	0.048828125	259.217385345539	-0.00301483154296875	0.049407958984375
965	0.04638671875	259.241785345477	-0.00298187255859375	0.046539306640625
966	0.0439453125	259.266185345416	-0.003033447265625	0.044189453125
967	0.04150390625	259.290585345354	-0.00297027587890625	0.0416839599609375
968	0.0390625	259.314985345293	-0.003035888671875	0.0393218994140625
969	0.03662109375	259.339385345231	-0.002974853515625	0.036785888671875
970	0.0341796875	259.363785345169	-0.0030224609375	0.0343719482421875
971	0.03173828125	259.388185345108	-0.00299468994140625	0.03192138671875
972	0.029296875	259.412585345046	-0.0029998779296875	0.02945556640625
973	0.02685546875	259.436985344985	-0.003018798828125	0.0270843505859375
974	0.0244140625	259.461385344923	-0.00297943115234375	0.024566650390625
975	0.02197265625	259.485785344861	-0.00303680419921875	0.022210693359375
976	0.01953125	259.5101853448	-0.0029718017578125	0.019683837890625
977	0.01708984375	259.534585344738	-0.00303802490234375	0.0173187255859375
978	0.0146484375	259.558985344677	-0.00298187255859375	0.0148193359375
979	0.01220703125	259.583385344615	-0.00302459716796875	0.012408447265625
980	0.009765625	259.607785344553	-0.003006591796875	0.009967041015625
981	0.00732421875	259.632185344492	-0.00300445556640625	0.0074920654296875
982	0.0048828125	259.65658534443	-0.00303314208984375	0.00510253906249999
983	0.00244140625	259.680985344369	-0.0029864501953125	0.002593994140625
984	0	259.705385344307	-0.00304931640625	0.000238037109375006
985	0.00244140625	259.729785344245	-0.00298095703125	0.002593994140625
986	0.0048828125	259.754185344184	-0.003043212890625	0.00511779785156249
987	0.00732421875	259.778585344122	-0.00298919677734375	0.00749816894531249
988	0.009765625	259.802985344061	-0.00302215576171875	0.0099456787109375
989	0.01220703125	259.827385343999	-0.0030096435546875	0.012420654296875
990	0.0146484375	259.851785343937	-0.00299530029296875	0.0147979736328125
991	0.01708984375	259.876185343876	-0.00302947998046875	0.017333984375
992	0.01953125	259.900585343814	-0.002974853515625	0.0196746826171875
993	0.02197265625	259.924985343752	-0.00303741455078125	0.022198486328125
