Index	Potential applied (V)	Time (s)	WE(1).Current (A)	WE(1).Potential (V)
1	0.00244140625	6.50393798357914	-0.003004150390625	0.00264587402343749
2	0.0048828125	6.52833798351753	-0.0029705810546875	0.00509033203125001
3	0.00732421875	6.55273798345593	-0.002977294921875	0.00751342773437499
4	0.009765625	6.57713798339432	-0.0029913330078125	0.0100006103515625
5	0.01220703125	6.60153798333272	-0.00295166015625	0.01236572265625
6	0.0146484375	6.62593798327111	-0.00300384521484375	0.0148956298828125
7	0.01708984375	6.65033798320951	-0.00293792724609375	0.017242431640625
8	0.01953125	6.67473798314791	-0.003001708984375	0.0197723388671875
9	0.02197265625	6.6991379830863	-0.0029425048828125	0.0221405029296875
10	0.0244140625	6.7235379830247	-0.00298370361328125	0.0246246337890625
11	0.02685546875	6.74793798296309	-0.00296142578125	0.02706298828125
12	0.029296875	6.77233798290149	-0.00295745849609375	0.0294677734375
13	0.03173828125	6.79673798283989	-0.0029827880859375	0.0319366455078125
14	0.0341796875	6.82113798277828	-0.0029345703125	0.03433837890625
15	0.03662109375	6.84553798271668	-0.0029937744140625	0.0368499755859375
16	0.0390625	6.86993798265507	-0.00292633056640625	0.03922119140625
17	0.04150390625	6.89433798259347	-0.00298828125	0.0417236328125
18	0.0439453125	6.91873798253187	-0.00293670654296875	0.044134521484375
19	0.04638671875	6.94313798247026	-0.0029693603515625	0.0465789794921875
20	0.048828125	6.96753798240866	-0.0029595947265625	0.0494384765625
21	0.05126953125	6.99193798234705	-0.00294403076171875	0.0517578125
22	0.0537109375	7.01633798228545	-0.00298187255859375	0.0543212890625
23	0.05615234375	7.04073798222385	-0.00292694091796875	0.056610107421875
24	0.05859375	7.06513798216224	-0.0029913330078125	0.05914306640625
25	0.06103515625	7.08953798210064	-0.00292510986328125	0.0615234375
26	0.0634765625	7.11393798203903	-0.0029827880859375	0.06402587890625
27	0.06591796875	7.13833798197743	-0.00294036865234375	0.06640625
28	0.068359375	7.16273798191583	-0.00296234130859375	0.068878173828125
29	0.07080078125	7.18713798185422	-0.00296478271484375	0.071319580078125
30	0.0732421875	7.21153798179262	-0.0029388427734375	0.073699951171875
31	0.07568359375	7.23593798173101	-0.00298431396484375	0.076263427734375
32	0.078125	7.26033798166941	-0.00292388916015625	0.07861328125
33	0.08056640625	7.2847379816078	-0.00298858642578125	0.081085205078125
34	0.0830078125	7.3091379815462	-0.0029254150390625	0.083526611328125
35	0.08544921875	7.3335379814846	-0.00297637939453125	0.08599853515625
36	0.087890625	7.35793798142299	-0.00294189453125	0.08843994140625
37	0.09033203125	7.38233798136139	-0.00295257568359375	0.090850830078125
38	0.0927734375	7.40673798129978	-0.00296539306640625	0.093353271484375
39	0.09521484375	7.43113798123818	-0.00292877197265625	0.09564208984375
40	0.09765625	7.45553798117658	-0.00298004150390625	0.0982666015625
41	0.10009765625	7.47993798111497	-0.0029156494140625	0.100555419921875
42	0.1025390625	7.50433798105337	-0.00297943115234375	0.102996826171875
43	0.10498046875	7.52873798099176	-0.0029193115234375	0.10552978515625
44	0.107421875	7.55313798093016	-0.00296295166015625	0.10791015625
45	0.10986328125	7.57753798086856	-0.002938232421875	0.11041259765625
46	0.1123046875	7.60193798080695	-0.00293792724609375	0.112823486328125
47	0.11474609375	7.62633798074535	-0.0029608154296875	0.115386962890625
48	0.1171875	7.65073798068374	-0.002916259765625	0.11767578125
49	0.11962890625	7.67513798062214	-0.0029736328125	0.12017822265625
50	0.1220703125	7.69953798056054	-0.002906494140625	0.12255859375
51	0.12451171875	7.72393798049893	-0.00296905517578125	0.125030517578125
52	0.126953125	7.74833798043733	-0.00291473388671875	0.12744140625
53	0.12939453125	7.77273798037572	-0.00295013427734375	0.12994384765625
54	0.1318359375	7.79713798031412	-0.002935791015625	0.132415771484375
55	0.13427734375	7.82153798025251	-0.0029254150390625	0.134735107421875
56	0.13671875	7.84593798019091	-0.00295745849609375	0.137298583984375
57	0.13916015625	7.87033798012931	-0.00290557861328125	0.13958740234375
58	0.1416015625	7.8947379800677	-0.00296630859375	0.142120361328125
59	0.14404296875	7.9191379800061	-0.002900390625	0.14453125
60	0.146484375	7.94353797994449	-0.002960205078125	0.147003173828125
61	0.14892578125	7.96793797988289	-0.00291259765625	0.1494140625
62	0.1513671875	7.99233797982129	-0.00293914794921875	0.15179443359375
63	0.15380859375	8.01673797975968	-0.0029351806640625	0.15435791015625
64	0.15625	8.04113797969808	-0.00291412353515625	0.15673828125
65	0.15869140625	8.06553797963647	-0.0029547119140625	0.1591796875
66	0.1611328125	8.08993797957487	-0.0028973388671875	0.161590576171875
67	0.16357421875	8.11433797951327	-0.00296112060546875	0.164093017578125
68	0.166015625	8.13873797945166	-0.002896728515625	0.16644287109375
69	0.16845703125	8.16313797939006	-0.00295135498046875	0.1689453125
70	0.1708984375	8.18753797932845	-0.00291168212890625	0.17138671875
71	0.17333984375	8.21193797926685	-0.00292877197265625	0.17376708984375
72	0.17578125	8.23633797920525	-0.00293487548828125	0.17626953125
73	0.17822265625	8.26073797914364	-0.002904052734375	0.17864990234375
74	0.1806640625	8.28513797908204	-0.00295196533203125	0.181182861328125
75	0.18310546875	8.30953797902043	-0.002889404296875	0.18353271484375
76	0.185546875	8.33393797895883	-0.0029541015625	0.186065673828125
77	0.18798828125	8.35833797889723	-0.002891845703125	0.188446044921875
78	0.1904296875	8.38273797883562	-0.0029400634765625	0.19091796875
79	0.19287109375	8.40713797877402	-0.002908935546875	0.193389892578125
80	0.1953125	8.43153797871241	-0.00291595458984375	0.195709228515625
81	0.19775390625	8.45593797865081	-0.00293121337890625	0.1982421875
82	0.2001953125	8.4803379785892	-0.002891845703125	0.20062255859375
83	0.20263671875	8.5047379785276	-0.002945556640625	0.203155517578125
84	0.205078125	8.529137978466	-0.0028802490234375	0.205474853515625
85	0.20751953125	8.55353797840439	-0.00294403076171875	0.2080078125
86	0.2099609375	8.57793797834279	-0.00288543701171875	0.210418701171875
87	0.21240234375	8.60233797828118	-0.00292724609375	0.21282958984375
88	0.21484375	8.62673797821958	-0.00290496826171875	0.215301513671875
89	0.21728515625	8.65113797815798	-0.00290130615234375	0.2176513671875
90	0.2197265625	8.67553797809637	-0.00292633056640625	0.220245361328125
91	0.22216796875	8.69993797803477	-0.00288055419921875	0.22259521484375
92	0.224609375	8.72433797797316	-0.0029388427734375	0.225067138671875
93	0.22705078125	8.74873797791156	-0.00287261962890625	0.227447509765625
94	0.2294921875	8.77313797784996	-0.0029345703125	0.22998046875
95	0.23193359375	8.79753797778835	-0.00288238525390625	0.23236083984375
96	0.234375	8.82193797772675	-0.0029150390625	0.23480224609375
97	0.23681640625	8.84633797766514	-0.002904052734375	0.2373046875
98	0.2392578125	8.87073797760354	-0.00289093017578125	0.239654541015625
99	0.24169921875	8.89513797754194	-0.00292388916015625	0.242218017578125
100	0.244140625	8.91953797748033	-0.00287109375	0.244537353515625
101	0.24658203125	8.94393797741873	-0.00293212890625	0.247039794921875
102	0.2490234375	8.96833797735712	-0.00286590576171875	0.249481201171875
103	0.25146484375	8.99273797729552	-0.0029229736328125	0.251953125
104	0.25390625	9.01713797723392	-0.00287750244140625	0.254364013671875
105	0.25634765625	9.04153797717231	-0.00290252685546875	0.25677490234375
106	0.2587890625	9.06593797711071	-0.00289947509765625	0.259307861328125
107	0.26123046875	9.0903379770491	-0.002877197265625	0.2615966796875
108	0.263671875	9.1147379769875	-0.00291778564453125	0.26416015625
109	0.26611328125	9.13913797692589	-0.002861328125	0.266510009765625
110	0.2685546875	9.16353797686429	-0.002923583984375	0.269012451171875
111	0.27099609375	9.18793797680269	-0.00285919189453125	0.271392822265625
112	0.2734375	9.21233797674108	-0.00291107177734375	0.273834228515625
113	0.27587890625	9.23673797667948	-0.0028729248046875	0.27630615234375
114	0.2783203125	9.26113797661787	-0.0028887939453125	0.278717041015625
115	0.28076171875	9.28553797655627	-0.002894287109375	0.28125
116	0.283203125	9.30993797649467	-0.00286468505859375	0.283599853515625
117	0.28564453125	9.33433797643306	-0.00291168212890625	0.286163330078125
118	0.2880859375	9.35873797637146	-0.002850341796875	0.2884521484375
119	0.29052734375	9.38313797630985	-0.00291412353515625	0.290985107421875
120	0.29296875	9.40753797624825	-0.002852783203125	0.293426513671875
121	0.29541015625	9.43193797618665	-0.00289947509765625	0.2958984375
122	0.2978515625	9.45633797612504	-0.0028692626953125	0.29833984375
123	0.30029296875	9.48073797606344	-0.0028753662109375	0.3006591796875
124	0.302734375	9.50513797600183	-0.002891845703125	0.303192138671875
125	0.30517578125	9.52953797594023	-0.00285186767578125	0.305572509765625
126	0.3076171875	9.55393797587863	-0.00290496826171875	0.308135986328125
127	0.31005859375	9.57833797581702	-0.002840576171875	0.310455322265625
128	0.3125	9.60273797575542	-0.00290283203125	0.31292724609375
129	0.31494140625	9.62713797569381	-0.002845458984375	0.315338134765625
130	0.3173828125	9.65153797563221	-0.00288604736328125	0.31787109375
131	0.31982421875	9.6759379755706	-0.00286468505859375	0.320281982421875
132	0.322265625	9.700337975509	-0.0028619384765625	0.3226318359375
133	0.32470703125	9.7247379754474	-0.0028863525390625	0.325225830078125
134	0.3271484375	9.74913797538579	-0.0028399658203125	0.327545166015625
135	0.32958984375	9.77353797532419	-0.00289764404296875	0.330078125
136	0.33203125	9.79793797526258	-0.00283294677734375	0.332427978515625
137	0.33447265625	9.82233797520098	-0.002894287109375	0.33489990234375
138	0.3369140625	9.84673797513938	-0.002841796875	0.337371826171875
139	0.33935546875	9.87113797507777	-0.00287445068359375	0.339752197265625
140	0.341796875	9.89553797501617	-0.002861328125	0.34228515625
141	0.34423828125	9.91993797495456	-0.0028497314453125	0.3446044921875
142	0.3466796875	9.94433797489296	-0.00288238525390625	0.347198486328125
143	0.34912109375	9.96873797483136	-0.00282989501953125	0.3494873046875
144	0.3515625	9.99313797476975	-0.0028912353515625	0.35205078125
145	0.35400390625	10.0175379747081	-0.0028253173828125	0.3543701171875
146	0.3564453125	10.0419379746465	-0.0028826904296875	0.356903076171875
147	0.35888671875	10.0663379745849	-0.00283660888671875	0.35931396484375
148	0.361328125	10.0907379745233	-0.002861328125	0.361724853515625
149	0.36376953125	10.1151379744617	-0.00285736083984375	0.3642578125
150	0.3662109375	10.1395379744001	-0.00283599853515625	0.366668701171875
151	0.36865234375	10.1639379743385	-0.0028741455078125	0.369110107421875
152	0.37109375	10.1883379742769	-0.002816162109375	0.3714599609375
153	0.37353515625	10.2127379742153	-0.00287750244140625	0.3740234375
154	0.3759765625	10.2371379741537	-0.00281402587890625	0.376373291015625
155	0.37841796875	10.2615379740921	-0.0028668212890625	0.378875732421875
156	0.380859375	10.2859379740305	-0.00282806396484375	0.38128662109375
157	0.38330078125	10.3103379739689	-0.00284423828125	0.3836669921875
158	0.3857421875	10.3347379739073	-0.0028485107421875	0.386199951171875
159	0.38818359375	10.3591379738457	-0.00281951904296875	0.3885498046875
160	0.390625	10.3835379737841	-0.0028656005859375	0.39105224609375
161	0.39306640625	10.4079379737225	-0.002803955078125	0.3934326171875
162	0.3955078125	10.4323379736609	-0.00286590576171875	0.395965576171875
163	0.39794921875	10.4567379735993	-0.00280517578125	0.3983154296875
164	0.400390625	10.4811379735377	-0.00285247802734375	0.40081787109375
165	0.40283203125	10.5055379734761	-0.0028216552734375	0.403228759765625
166	0.4052734375	10.5299379734145	-0.00282867431640625	0.405670166015625
167	0.40771484375	10.5543379733529	-0.00284210205078125	0.408203125
168	0.41015625	10.5787379732913	-0.00280609130859375	0.410552978515625
169	0.41259765625	10.6031379732297	-0.00285614013671875	0.4130859375
170	0.4150390625	10.627537973168	-0.0027935791015625	0.4154052734375
171	0.41748046875	10.6519379731064	-0.00285552978515625	0.41796875
172	0.419921875	10.6763379730448	-0.0027984619140625	0.42034912109375
173	0.42236328125	10.7007379729832	-0.00284027099609375	0.422760009765625
174	0.4248046875	10.7251379729216	-0.0028173828125	0.4251708984375
175	0.42724609375	10.74953797286	-0.00281646728515625	0.427642822265625
176	0.4296875	10.7739379727984	-0.002838134765625	0.430084228515625
177	0.43212890625	10.7983379727368	-0.002794189453125	0.432464599609375
178	0.4345703125	10.8227379726752	-0.00284942626953125	0.43499755859375
179	0.43701171875	10.8471379726136	-0.0027838134765625	0.4373779296875
180	0.439453125	10.871537972552	-0.002843017578125	0.439849853515625
181	0.44189453125	10.8959379724904	-0.002789306640625	0.442291259765625
182	0.4443359375	10.9203379724288	-0.00282196044921875	0.444793701171875
183	0.44677734375	10.9447379723672	-0.002806396484375	0.44720458984375
184	0.44921875	10.9691379723056	-0.0027947998046875	0.449554443359375
185	0.45166015625	10.993537972244	-0.0028240966796875	0.452056884765625
186	0.4541015625	11.0179379721824	-0.0027728271484375	0.45440673828125
187	0.45654296875	11.0423379721208	-0.00282989501953125	0.456939697265625
188	0.458984375	11.0667379720592	-0.00276458740234375	0.459320068359375
189	0.46142578125	11.0911379719976	-0.002821044921875	0.4617919921875
190	0.4638671875	11.115537971936	-0.0027728271484375	0.4642333984375
191	0.46630859375	11.1399379718744	-0.00279815673828125	0.4666748046875
192	0.46875	11.1643379718128	-0.00279083251953125	0.469146728515625
193	0.47119140625	11.1887379717512	-0.00277191162109375	0.471588134765625
194	0.4736328125	11.2131379716895	-0.0028082275390625	0.47406005859375
195	0.47607421875	11.2375379716279	-0.00275299072265625	0.4764404296875
196	0.478515625	11.2619379715663	-0.00281280517578125	0.478912353515625
197	0.48095703125	11.2863379715047	-0.002750244140625	0.481292724609375
198	0.4833984375	11.3107379714431	-0.00280303955078125	0.4837646484375
199	0.48583984375	11.3351379713815	-0.00276214599609375	0.4862060546875
200	0.48828125	11.3595379713199	-0.00277923583984375	0.48858642578125
201	0.49072265625	11.3839379712583	-0.0027813720703125	0.491119384765625
202	0.4931640625	11.4083379711967	-0.00275390625	0.49346923828125
203	0.49560546875	11.4327379711351	-0.00279754638671875	0.496063232421875
204	0.498046875	11.4571379710735	-0.00273773193359375	0.49835205078125
205	0.50048828125	11.4815379710119	-0.0027984619140625	0.5008544921875
206	0.5029296875	11.5059379709503	-0.00273681640625	0.5032958984375
207	0.50537109375	11.5303379708887	-0.002783203125	0.5057373046875
208	0.5078125	11.5547379708271	-0.0027496337890625	0.5081787109375
209	0.51025390625	11.5791379707655	-0.002757568359375	0.51055908203125
210	0.5126953125	11.6035379707039	-0.0027667236328125	0.513153076171875
211	0.51513671875	11.6279379706423	-0.00273040771484375	0.51544189453125
212	0.517578125	11.6523379705807	-0.0027764892578125	0.517913818359375
213	0.52001953125	11.6767379705191	-0.00271331787109375	0.52032470703125
214	0.5224609375	11.7011379704575	-0.00277191162109375	0.522857666015625
215	0.52490234375	11.7255379703959	-0.002713623046875	0.525238037109375
216	0.52734375	11.7499379703343	-0.0027532958984375	0.5277099609375
217	0.52978515625	11.7743379702727	-0.00272613525390625	0.5301513671875
218	0.5322265625	11.7987379702111	-0.0027252197265625	0.532501220703125
219	0.53466796875	11.8231379701494	-0.002742919921875	0.535064697265625
220	0.537109375	11.8475379700878	-0.0026995849609375	0.537384033203125
221	0.53955078125	11.8719379700262	-0.00274932861328125	0.539947509765625
222	0.5419921875	11.8963379699646	-0.0026837158203125	0.542266845703125
223	0.54443359375	11.920737969903	-0.00273956298828125	0.5447998046875
224	0.546875	11.9451379698414	-0.00268646240234375	0.54718017578125
225	0.54931640625	11.9695379697798	-0.00271942138671875	0.549591064453125
226	0.5517578125	11.9939379697182	-0.00270294189453125	0.552154541015625
227	0.55419921875	12.0183379696566	-0.0026934814453125	0.55450439453125
228	0.556640625	12.042737969595	-0.0027197265625	0.557037353515625
229	0.55908203125	12.0671379695334	-0.0026702880859375	0.559417724609375
230	0.5615234375	12.0915379694718	-0.002724609375	0.5618896484375
231	0.56396484375	12.1159379694102	-0.00266082763671875	0.564239501953125
232	0.56640625	12.1403379693486	-0.00271453857421875	0.566741943359375
233	0.56884765625	12.164737969287	-0.0026678466796875	0.56915283203125
234	0.5712890625	12.1891379692254	-0.00269317626953125	0.571563720703125
235	0.57373046875	12.2135379691638	-0.002684326171875	0.574066162109375
236	0.576171875	12.2379379691022	-0.00266510009765625	0.57647705078125
237	0.57861328125	12.2623379690406	-0.0026983642578125	0.5789794921875
238	0.5810546875	12.286737968979	-0.002642822265625	0.581329345703125
239	0.58349609375	12.3111379689174	-0.00269805908203125	0.5838623046875
240	0.5859375	12.3355379688558	-0.0026361083984375	0.58624267578125
241	0.58837890625	12.3599379687942	-0.002684326171875	0.588714599609375
242	0.5908203125	12.3843379687326	-0.002642822265625	0.591094970703125
243	0.59326171875	12.4087379686709	-0.00265655517578125	0.593536376953125
244	0.595703125	12.4331379686093	-0.00265594482421875	0.596038818359375
245	0.59814453125	12.4575379685477	-0.00262725830078125	0.598419189453125
246	0.6005859375	12.4819379684861	-0.00266448974609375	0.600921630859375
247	0.60302734375	12.5063379684245	-0.00260406494140625	0.60333251953125
248	0.60546875	12.5307379683629	-0.0026593017578125	0.605804443359375
249	0.60791015625	12.5551379683013	-0.00259674072265625	0.608184814453125
250	0.6103515625	12.5795379682397	-0.00263885498046875	0.61065673828125
251	0.61279296875	12.6039379681781	-0.0026031494140625	0.613067626953125
252	0.615234375	12.6283379681165	-0.0026080322265625	0.615478515625
253	0.61767578125	12.6527379680549	-0.00261474609375	0.617950439453125
254	0.6201171875	12.6771379679933	-0.00257843017578125	0.620361328125
255	0.62255859375	12.7015379679317	-0.0026202392578125	0.6229248046875
256	0.625	12.7259379678701	-0.00255706787109375	0.625213623046875
257	0.62744140625	12.7503379678085	-0.0026104736328125	0.62774658203125
258	0.6298828125	12.7747379677469	-0.002552490234375	0.630157470703125
259	0.63232421875	12.7991379676853	-0.002586669921875	0.632598876953125
260	0.634765625	12.8235379676237	-0.0025604248046875	0.63507080078125
261	0.63720703125	12.8479379675621	-0.00255645751953125	0.637451171875
262	0.6396484375	12.8723379675005	-0.00256988525390625	0.639984130859375
263	0.64208984375	12.8967379674389	-0.002528076171875	0.64227294921875
264	0.64453125	12.9211379673773	-0.002574462890625	0.644805908203125
265	0.64697265625	12.9455379673157	-0.002510986328125	0.647186279296875
266	0.6494140625	12.9699379672541	-0.0025616455078125	0.64971923828125
267	0.65185546875	12.9943379671925	-0.0025091552734375	0.652099609375
268	0.654296875	13.0187379671308	-0.00253753662109375	0.654541015625
269	0.65673828125	13.0431379670692	-0.0025177001953125	0.657012939453125
270	0.6591796875	13.0675379670076	-0.00250457763671875	0.6593017578125
271	0.66162109375	13.091937966946	-0.0025244140625	0.661895751953125
272	0.6640625	13.1163379668844	-0.002474365234375	0.66424560546875
273	0.66650390625	13.1407379668228	-0.0025225830078125	0.66680908203125
274	0.6689453125	13.1651379667612	-0.00245849609375	0.66912841796875
275	0.67138671875	13.1895379666996	-0.0025048828125	0.67169189453125
276	0.673828125	13.213937966638	-0.00245574951171875	0.67401123046875
277	0.67626953125	13.2383379665764	-0.00247528076171875	0.676422119140625
278	0.6787109375	13.2627379665148	-0.00246124267578125	0.67889404296875
279	0.68115234375	13.2871379664532	-0.0024371337890625	0.681304931640625
280	0.68359375	13.3115379663916	-0.0024639892578125	0.683868408203125
281	0.68603515625	13.33593796633	-0.00240570068359375	0.6861572265625
282	0.6884765625	13.3603379662684	-0.002452392578125	0.688690185546875
283	0.69091796875	13.3847379662068	-0.0023876953125	0.691070556640625
284	0.693359375	13.4091379661452	-0.00242645263671875	0.693511962890625
285	0.69580078125	13.4335379660836	-0.00238189697265625	0.695953369140625
286	0.6982421875	13.457937966022	-0.00239044189453125	0.698394775390625
287	0.70068359375	13.4823379659604	-0.00238311767578125	0.700927734375
288	0.703125	13.5067379658988	-0.00235107421875	0.70330810546875
289	0.70556640625	13.5311379658372	-0.0023797607421875	0.705780029296875
290	0.7080078125	13.5555379657756	-0.0023199462890625	0.70819091796875
291	0.71044921875	13.579937965714	-0.00236358642578125	0.710662841796875
292	0.712890625	13.6043379656523	-0.0023004150390625	0.7130126953125
293	0.71533203125	13.6287379655907	-0.0023321533203125	0.71551513671875
294	0.7177734375	13.6531379655291	-0.0022943115234375	0.7178955078125
295	0.72021484375	13.6775379654675	-0.00229339599609375	0.7203369140625
296	0.72265625	13.7019379654059	-0.002294921875	0.722808837890625
297	0.72509765625	13.7263379653443	-0.00225341796875	0.725189208984375
298	0.7275390625	13.7507379652827	-0.00228515625	0.727752685546875
299	0.72998046875	13.7751379652211	-0.00222259521484375	0.73004150390625
300	0.732421875	13.7995379651595	-0.00226531982421875	0.732574462890625
301	0.73486328125	13.8239379650979	-0.00220672607421875	0.734954833984375
302	0.7373046875	13.8483379650363	-0.00222930908203125	0.737396240234375
303	0.73974609375	13.8727379649747	-0.002198486328125	0.73980712890625
304	0.7421875	13.8971379649131	-0.002186279296875	0.7423095703125
305	0.74462890625	13.9215379648515	-0.0021905517578125	0.74481201171875
306	0.7470703125	13.9459379647899	-0.00214324951171875	0.7471923828125
307	0.74951171875	13.9703379647283	-0.002174072265625	0.749725341796875
308	0.751953125	13.9947379646667	-0.0021112060546875	0.7513427734375
309	0.75439453125	14.0191379646051	-0.0021466064453125	0.7537841796875
310	0.7568359375	14.0435379645435	-0.00208892822265625	0.75592041015625
311	0.75927734375	14.0679379644819	-0.00210357666015625	0.75897216796875
312	0.76171875	14.0923379644203	-0.0020751953125	0.76080322265625
313	0.76416015625	14.1167379643587	-0.00205657958984375	0.762939453125
314	0.7666015625	14.1411379642971	-0.00206268310546875	0.7666015625
315	0.76904296875	14.1655379642355	-0.002008056640625	0.76812744140625
316	0.771484375	14.1899379641739	-0.00203643798828125	0.7708740234375
317	0.77392578125	14.2143379641122	-0.001971435546875	0.772705078125
318	0.7763671875	14.2387379640506	-0.001998291015625	0.7763671875
319	0.77880859375	14.263137963989	-0.001944580078125	0.77850341796875
320	0.78125	14.2875379639274	-0.00194854736328125	0.78155517578125
321	0.78369140625	14.3119379638658	-0.00192474365234375	0.782470703125
322	0.7861328125	14.3363379638042	-0.00189666748046875	0.78521728515625
323	0.78857421875	14.3607379637426	-0.001904296875	0.7879638671875
324	0.791015625	14.385137963681	-0.001844482421875	0.7904052734375
325	0.79345703125	14.4095379636194	-0.00187164306640625	0.792236328125
326	0.7958984375	14.4339379635578	-0.001806640625	0.79498291015625
327	0.79833984375	14.4583379634962	-0.001827392578125	0.79742431640625
328	0.80078125	14.4827379634346	-0.00177764892578125	0.8001708984375
329	0.80322265625	14.507137963373	-0.0017724609375	0.80230712890625
330	0.8056640625	14.5315379633114	-0.0017535400390625	0.804443359375
331	0.80810546875	14.5559379632498	-0.001717529296875	0.80718994140625
332	0.810546875	14.5803379631882	-0.00172637939453125	0.80963134765625
333	0.81298828125	14.6047379631266	-0.0016650390625	0.8123779296875
334	0.8154296875	14.629137963065	-0.00168670654296875	0.81512451171875
335	0.81787109375	14.6535379630034	-0.00162445068359375	0.81756591796875
336	0.8203125	14.6779379629418	-0.00163665771484375	0.81939697265625
337	0.82275390625	14.7023379628802	-0.00158966064453125	0.821533203125
338	0.8251953125	14.7267379628186	-0.0015740966796875	0.82489013671875
339	0.82763671875	14.751137962757	-0.0015570068359375	0.8270263671875
340	0.830078125	14.7755379626954	-0.00151336669921875	0.82916259765625
341	0.83251953125	14.7999379626337	-0.00152099609375	0.83160400390625
342	0.8349609375	14.8243379625721	-0.001456298828125	0.8343505859375
343	0.83740234375	14.8487379625105	-0.0014703369140625	0.8367919921875
344	0.83984375	14.8731379624489	-0.0014093017578125	0.83892822265625
345	0.84228515625	14.8975379623873	-0.0014117431640625	0.8416748046875
346	0.8447265625	14.9219379623257	-0.0013690185546875	0.8441162109375
347	0.84716796875	14.9463379622641	-0.0013427734375	0.84625244140625
348	0.849609375	14.9707379622025	-0.001326904296875	0.84869384765625
349	0.85205078125	14.9951379621409	-0.00127655029296875	0.85052490234375
350	0.8544921875	15.0195379620793	-0.0012799072265625	0.85357666015625
351	0.85693359375	15.0439379620177	-0.00121429443359375	0.8563232421875
352	0.859375	15.0683379619561	-0.0012188720703125	0.85906982421875
353	0.86181640625	15.0927379618945	-0.00116058349609375	0.860595703125
354	0.8642578125	15.1171379618329	-0.0011529541015625	0.8636474609375
355	0.86669921875	15.1415379617713	-0.001112060546875	0.865478515625
356	0.869140625	15.1659379617097	-0.00107696533203125	0.86822509765625
357	0.87158203125	15.1903379616481	-0.00106170654296875	0.87127685546875
358	0.8740234375	15.2147379615865	-0.001007080078125	0.8734130859375
359	0.87646484375	15.2391379615249	-0.001005859375	0.87615966796875
360	0.87890625	15.2635379614633	-0.00093963623046875	0.8782958984375
361	0.88134765625	15.2879379614017	-0.00093719482421875	0.88043212890625
362	0.8837890625	15.3123379613401	-0.00087921142578125	0.88287353515625
363	0.88623046875	15.3367379612785	-0.0008636474609375	0.88531494140625
364	0.888671875	15.3611379612169	-0.00082611083984375	0.88775634765625
365	0.89111328125	15.3855379611553	-0.00078369140625	0.889892578125
366	0.8935546875	15.4099379610936	-0.0007684326171875	0.89263916015625
367	0.89599609375	15.434337961032	-0.00071044921875	0.89508056640625
368	0.8984375	15.4587379609704	-0.0007049560546875	0.8978271484375
369	0.90087890625	15.4831379609088	-0.00063995361328125	0.9002685546875
370	0.9033203125	15.5075379608472	-0.00062835693359375	0.9027099609375
371	0.90576171875	15.5319379607856	-0.0005755615234375	0.9051513671875
372	0.908203125	15.556337960724	-0.00054931640625	0.90728759765625
373	0.91064453125	15.5807379606624	-0.00051361083984375	0.90972900390625
374	0.9130859375	15.6051379606008	-0.00046466064453125	0.91278076171875
375	0.91552734375	15.6295379605392	-0.000445220947265625	0.91461181640625
376	0.91796875	15.6539379604776	-0.000385009765625	0.91705322265625
377	0.92041015625	15.678337960416	-0.000371673583984375	0.9197998046875
378	0.9228515625	15.7027379603544	-0.000306549072265625	0.9222412109375
379	0.92529296875	15.7271379602928	-0.000286468505859375	0.92437744140625
380	0.927734375	15.7515379602312	-0.00023406982421875	0.926513671875
381	0.93017578125	15.7759379601696	-0.000199920654296875	0.92926025390625
382	0.9326171875	15.800337960108	-0.000162322998046875	0.9320068359375
383	0.93505859375	15.8247379600464	-0.00010675048828125	0.933837890625
384	0.9375	15.8491379599848	-8.221435546875E-05	0.93658447265625
385	0.93994140625	15.8735379599232	-1.97784423828125E-05	0.93902587890625
386	0.9423828125	15.8979379598616	4.2724609375E-07	0.9417724609375
387	0.94482421875	15.9223379598	6.4483642578125E-05	0.94390869140625
388	0.947265625	15.9467379597384	9.423828125E-05	0.94635009765625
389	0.94970703125	15.9711379596768	0.000146575927734375	0.94879150390625
390	0.9521484375	15.9955379596151	0.000187652587890625	0.95184326171875
391	0.95458984375	16.0199379595535	0.000226287841796875	0.9539794921875
392	0.95703125	16.0443379594919	0.00028643798828125	0.95611572265625
393	0.95947265625	16.0687379594303	0.000313812255859375	0.95855712890625
394	0.9619140625	16.0931379593687	0.000378631591796875	0.96099853515625
395	0.96435546875	16.1175379593071	0.000405059814453125	0.96282958984375
396	0.966796875	16.1419379592455	0.000468475341796875	0.96588134765625
397	0.96923828125	16.1663379591839	0.00050628662109375	0.96832275390625
398	0.9716796875	16.1907379591223	0.00055694580078125	0.9710693359375
399	0.97412109375	16.2151379590607	0.0006048583984375	0.972900390625
400	0.9765625	16.2395379589991	0.000645751953125	0.97564697265625
401	0.97900390625	16.2639379589375	0.00070953369140625	0.97808837890625
402	0.9814453125	16.2883379588759	0.00074371337890625	0.98052978515625
403	0.98388671875	16.3127379588143	0.00080841064453125	0.9832763671875
404	0.986328125	16.3371379587527	0.00084197998046875	0.9857177734375
405	0.98876953125	16.3615379586911	0.00090576171875	0.9881591796875
406	0.9912109375	16.3859379586295	0.0009503173828125	0.99029541015625
407	0.99365234375	16.4103379585679	0.00100311279296875	0.99273681640625
408	0.99609375	16.4347379585063	0.0010577392578125	0.994873046875
409	0.99853515625	16.4591379584447	0.0011016845703125	0.997314453125
410	1.0009765625	16.4835379583831	0.0011688232421875	0.999755859375
411	1.00341796875	16.5079379583215	0.00120849609375	1.00250244140625
412	1.005859375	16.5323379582599	0.00127471923828125	1.004638671875
413	1.00830078125	16.5567379581983	0.00131591796875	1.007080078125
414	1.0107421875	16.5811379581367	0.00138031005859375	1.01043701171875
415	1.01318359375	16.605537958075	0.00143310546875	1.011962890625
416	1.015625	16.6299379580134	0.00148773193359375	1.01470947265625
417	1.01806640625	16.6543379579518	0.0015472412109375	1.01715087890625
418	1.0205078125	16.6787379578902	0.00159454345703125	1.02020263671875
419	1.02294921875	16.7031379578286	0.0016650390625	1.02203369140625
420	1.025390625	16.727537957767	0.0017108154296875	1.024169921875
421	1.02783203125	16.7519379577054	0.001778564453125	1.02691650390625
422	1.0302734375	16.7763379576438	0.001826171875	1.02935791015625
423	1.03271484375	16.8007379575822	0.00189178466796875	1.03240966796875
424	1.03515625	16.8251379575206	0.00195068359375	1.03424072265625
425	1.03759765625	16.849537957459	0.00200775146484375	1.03668212890625
426	1.0400390625	16.8739379573974	0.00207061767578125	1.038818359375
427	1.04248046875	16.8983379573358	0.00212249755859375	1.041259765625
428	1.044921875	16.9227379572742	0.0021954345703125	1.04339599609375
429	1.04736328125	16.9471379572126	0.00224700927734375	1.0467529296875
430	1.0498046875	16.971537957151	0.00231536865234375	1.048583984375
431	1.05224609375	16.9959379570894	0.002369384765625	1.05133056640625
432	1.0546875	17.0203379570278	0.00243621826171875	1.05377197265625
433	1.05712890625	17.0447379569662	0.00250091552734375	1.055908203125
434	1.0595703125	17.0691379569046	0.00256072998046875	1.058349609375
435	1.06201171875	17.093537956843	0.00262786865234375	1.06109619140625
436	1.064453125	17.1179379567814	0.00268341064453125	1.06353759765625
437	1.06689453125	17.1423379567198	0.00275848388671875	1.0662841796875
438	1.0693359375	17.1667379566582	0.0028167724609375	1.06842041015625
439	1.07177734375	17.1911379565965	0.00288665771484375	1.07086181640625
440	1.07421875	17.2155379565349	0.002945556640625	1.07330322265625
441	1.07666015625	17.2399379564733	0.00301422119140625	1.07574462890625
442	1.0791015625	17.2643379564117	0.0030841064453125	1.0784912109375
443	1.08154296875	17.2887379563501	0.0031463623046875	1.08062744140625
444	1.083984375	17.3131379562885	0.00321563720703125	1.0833740234375
445	1.08642578125	17.3375379562269	0.0032757568359375	1.08551025390625
446	1.0888671875	17.3619379561653	0.00335235595703125	1.08795166015625
447	1.09130859375	17.3863379561037	0.003414306640625	1.0906982421875
448	1.09375	17.4107379560421	0.0034844970703125	1.092529296875
449	1.09619140625	17.4351379559805	0.00354705810546875	1.094970703125
450	1.0986328125	17.4595379559189	0.0036151123046875	1.097412109375
451	1.10107421875	17.4839379558573	0.00368560791015625	1.099853515625
452	1.103515625	17.5083379557957	0.00374847412109375	1.102294921875
453	1.10595703125	17.5327379557341	0.00381561279296875	1.104736328125
454	1.1083984375	17.5571379556725	0.00387420654296875	1.107177734375
455	1.11083984375	17.5815379556109	0.00394500732421875	1.10992431640625
456	1.11328125	17.6059379555493	0.00400360107421875	1.112060546875
457	1.11572265625	17.6303379554877	0.0040655517578125	1.11419677734375
458	1.1181640625	17.6547379554261	0.00412139892578125	1.116943359375
459	1.12060546875	17.6791379553645	0.00417877197265625	1.11968994140625
460	1.123046875	17.7035379553029	0.00423675537109375	1.121826171875
461	1.12548828125	17.7279379552413	0.00428680419921875	1.12396240234375
462	1.1279296875	17.7523379551797	0.00433807373046875	1.12701416015625
463	1.13037109375	17.7767379551181	0.00438323974609375	1.129150390625
464	1.1328125	17.8011379550564	0.00443389892578125	1.13128662109375
465	1.13525390625	17.8255379549948	0.0044769287109375	1.134033203125
466	1.1376953125	17.8499379549332	0.00451995849609375	1.13616943359375
467	1.14013671875	17.8743379548716	0.0045587158203125	1.13922119140625
468	1.142578125	17.89873795481	0.00459747314453125	1.141357421875
469	1.14501953125	17.9231379547484	0.00463714599609375	1.1444091796875
470	1.1474609375	17.9475379546868	0.00467132568359375	1.146240234375
471	1.14990234375	17.9719379546252	0.00470611572265625	1.148681640625
472	1.15234375	17.9963379545636	0.0047369384765625	1.15142822265625
473	1.15478515625	18.020737954502	0.0047711181640625	1.153564453125
474	1.1572265625	18.0451379544404	0.00480133056640625	1.1566162109375
475	1.15966796875	18.0695379543788	0.0048309326171875	1.158447265625
476	1.162109375	18.0939379543172	0.00485809326171875	1.160888671875
477	1.16455078125	18.1183379542556	0.00488525390625	1.1627197265625
478	1.1669921875	18.142737954194	0.004913330078125	1.165771484375
479	1.16943359375	18.1671379541324	0.0049383544921875	1.168212890625
480	1.171875	18.1915379540708	0.00496337890625	1.170654296875
481	1.17431640625	18.2159379540092	0.00498626708984375	1.1737060546875
482	1.1767578125	18.2403379539476	0.005010986328125	1.175537109375
483	1.17919921875	18.264737953886	0.0050335693359375	1.177978515625
484	1.181640625	18.2891379538244	0.00505584716796875	1.180419921875
485	1.18408203125	18.3135379537628	0.005076904296875	1.182861328125
486	1.1865234375	18.3379379537012	0.00509765625	1.18560791015625
487	1.18896484375	18.3623379536396	0.00511932373046875	1.18743896484375
488	1.19140625	18.3867379535779	0.00513885498046875	1.19049072265625
489	1.19384765625	18.4111379535163	0.0051580810546875	1.19293212890625
490	1.1962890625	18.4355379534547	0.0051763916015625	1.1956787109375
491	1.19873046875	18.4599379533931	0.0051959228515625	1.19720458984375
492	1.201171875	18.4843379533315	0.0052142333984375	1.20025634765625
493	1.19873046875	18.5087379532699	0.0051934814453125	1.197509765625
494	1.1962890625	18.5331379532083	0.00517181396484375	1.19598388671875
495	1.19384765625	18.5575379531467	0.005150146484375	1.19293212890625
496	1.19140625	18.5819379530851	0.00512939453125	1.190185546875
497	1.18896484375	18.6063379530235	0.00510589599609375	1.187744140625
498	1.1865234375	18.6307379529619	0.00508270263671875	1.18560791015625
499	1.18408203125	18.6551379529003	0.00505767822265625	1.182861328125
500	1.181640625	18.6795379528387	0.0050341796875	1.1810302734375
501	1.17919921875	18.7039379527771	0.00500885009765625	1.177978515625
502	1.1767578125	18.7283379527155	0.00498260498046875	1.175537109375
503	1.17431640625	18.7527379526539	0.004954833984375	1.17340087890625
504	1.171875	18.7771379525923	0.00492584228515625	1.17095947265625
505	1.16943359375	18.8015379525307	0.00489898681640625	1.16790771484375
506	1.1669921875	18.8259379524691	0.0048675537109375	1.16607666015625
507	1.16455078125	18.8503379524075	0.00483734130859375	1.16363525390625
508	1.162109375	18.8747379523459	0.00480255126953125	1.160888671875
509	1.15966796875	18.8991379522843	0.00477020263671875	1.1578369140625
510	1.1572265625	18.9235379522227	0.00473541259765625	1.15631103515625
511	1.15478515625	18.9479379521611	0.0046978759765625	1.15386962890625
512	1.15234375	18.9723379520995	0.00465911865234375	1.151123046875
513	1.14990234375	18.9967379520378	0.00461669921875	1.14837646484375
514	1.1474609375	19.0211379519762	0.00457855224609375	1.14654541015625
515	1.14501953125	19.0455379519146	0.00453125	1.143798828125
516	1.142578125	19.069937951853	0.0044866943359375	1.141357421875
517	1.14013671875	19.0943379517914	0.00443389892578125	1.138916015625
518	1.1376953125	19.1187379517298	0.004384765625	1.13616943359375
519	1.13525390625	19.1431379516682	0.00433135986328125	1.13433837890625
520	1.1328125	19.1675379516066	0.00427337646484375	1.13189697265625
521	1.13037109375	19.191937951545	0.004215087890625	1.1297607421875
522	1.1279296875	19.2163379514834	0.00414825439453125	1.126708984375
523	1.12548828125	19.2407379514218	0.00409210205078125	1.12457275390625
524	1.123046875	19.2651379513602	0.00402008056640625	1.12213134765625
525	1.12060546875	19.2895379512986	0.0039556884765625	1.119384765625
526	1.1181640625	19.313937951237	0.00387908935546875	1.11724853515625
527	1.11572265625	19.3383379511754	0.00381072998046875	1.114501953125
528	1.11328125	19.3627379511138	0.00373992919921875	1.11236572265625
529	1.11083984375	19.3871379510522	0.00366241455078125	1.10992431640625
530	1.1083984375	19.4115379509906	0.00359130859375	1.107177734375
531	1.10595703125	19.435937950929	0.00350799560546875	1.104736328125
532	1.103515625	19.4603379508674	0.00344390869140625	1.102294921875
533	1.10107421875	19.4847379508058	0.00336151123046875	1.09954833984375
534	1.0986328125	19.5091379507442	0.003292236328125	1.09832763671875
535	1.09619140625	19.5335379506826	0.00321014404296875	1.09527587890625
536	1.09375	19.557937950621	0.00313751220703125	1.09283447265625
537	1.09130859375	19.5823379505593	0.00306732177734375	1.09039306640625
538	1.0888671875	19.6067379504977	0.00298736572265625	1.087646484375
539	1.08642578125	19.6311379504361	0.00291900634765625	1.0858154296875
540	1.083984375	19.6555379503745	0.00283538818359375	1.08306884765625
541	1.08154296875	19.6799379503129	0.002774658203125	1.080322265625
542	1.0791015625	19.7043379502513	0.002694091796875	1.07818603515625
543	1.07666015625	19.7287379501897	0.002628173828125	1.07574462890625
544	1.07421875	19.7531379501281	0.00255035400390625	1.072998046875
545	1.07177734375	19.7775379500665	0.0024798583984375	1.07086181640625
546	1.0693359375	19.8019379500049	0.00241546630859375	1.06903076171875
547	1.06689453125	19.8263379499433	0.00233734130859375	1.0662841796875
548	1.064453125	19.8507379498817	0.002276611328125	1.0638427734375
549	1.06201171875	19.8751379498201	0.00219390869140625	1.06109619140625
550	1.0595703125	19.8995379497585	0.00214019775390625	1.058349609375
551	1.05712890625	19.9239379496969	0.00206268310546875	1.0565185546875
552	1.0546875	19.9483379496353	0.00200164794921875	1.05377197265625
553	1.05224609375	19.9727379495737	0.00192962646484375	1.05133056640625
554	1.0498046875	19.9971379495121	0.0018621826171875	1.04888916015625
555	1.04736328125	20.0215379494505	0.00180633544921875	1.04644775390625
556	1.044921875	20.0459379493889	0.001729736328125	1.04400634765625
557	1.04248046875	20.0703379493273	0.0016778564453125	1.041259765625
558	1.0400390625	20.0947379492657	0.00159759521484375	1.038818359375
559	1.03759765625	20.1191379492041	0.00155029296875	1.03668212890625
560	1.03515625	20.1435379491425	0.00147674560546875	1.03424072265625
561	1.03271484375	20.1679379490809	0.0014202880859375	1.03179931640625
562	1.0302734375	20.1923379490192	0.00135528564453125	1.029052734375
563	1.02783203125	20.2167379489576	0.0012890625	1.02691650390625
564	1.025390625	20.241137948896	0.00124053955078125	1.02447509765625
565	1.02294921875	20.2655379488344	0.00116485595703125	1.0223388671875
566	1.0205078125	20.2899379487728	0.0011212158203125	1.01959228515625
567	1.01806640625	20.3143379487112	0.001043701171875	1.01715087890625
568	1.015625	20.3387379486496	0.00100250244140625	1.0150146484375
569	1.01318359375	20.363137948588	0.00093475341796875	1.01226806640625
570	1.0107421875	20.3875379485264	0.00088165283203125	1.0101318359375
571	1.00830078125	20.4119379484648	0.00082489013671875	1.0076904296875
572	1.005859375	20.4363379484032	0.00075927734375	1.004638671875
573	1.00341796875	20.4607379483416	0.00072113037109375	1.002197265625
574	1.0009765625	20.48513794828	0.00064697265625	0.999755859375
575	0.99853515625	20.5095379482184	0.0006121826171875	0.99761962890625
576	0.99609375	20.5339379481568	0.00053741455078125	0.99517822265625
577	0.99365234375	20.5583379480952	0.0005010986328125	0.992431640625
578	0.9912109375	20.5827379480336	0.000440521240234375	0.989990234375
579	0.98876953125	20.607137947972	0.00039056396484375	0.98785400390625
580	0.986328125	20.6315379479104	0.000342803955078125	0.98541259765625
581	0.98388671875	20.6559379478488	0.000278472900390625	0.982666015625
582	0.9814453125	20.6803379477872	0.000250518798828125	0.98052978515625
583	0.97900390625	20.7047379477256	0.0001785888671875	0.97808837890625
584	0.9765625	20.729137947664	0.00015179443359375	0.97564697265625
585	0.97412109375	20.7535379476024	8.2366943359375E-05	0.9735107421875
586	0.9716796875	20.7779379475407	5.0689697265625E-05	0.970458984375
587	0.96923828125	20.8023379474791	-2.2308349609375E-06	0.96893310546875
588	0.966796875	20.8267379474175	-5.06591796875E-05	0.96588134765625
589	0.96435546875	20.8511379473559	-8.6517333984375E-05	0.96343994140625
590	0.9619140625	20.8755379472943	-0.000151153564453125	0.9613037109375
591	0.95947265625	20.8999379472327	-0.00016839599609375	0.95855712890625
592	0.95703125	20.9243379471711	-0.000239044189453125	0.95672607421875
593	0.95458984375	20.9487379471095	-0.00025732421875	0.95306396484375
594	0.9521484375	20.9731379470479	-0.000323394775390625	0.95123291015625
595	0.94970703125	20.9975379469863	-0.00035113525390625	0.94879150390625
596	0.947265625	21.0219379469247	-0.00039556884765625	0.94635009765625
597	0.94482421875	21.0463379468631	-0.000444000244140625	0.94390869140625
598	0.9423828125	21.0707379468015	-0.00046905517578125	0.94146728515625
599	0.93994140625	21.0951379467399	-0.0005340576171875	0.9393310546875
600	0.9375	21.1195379466783	-0.0005419921875	0.93658447265625
601	0.93505859375	21.1439379466167	-0.00061279296875	0.9344482421875
602	0.9326171875	21.1683379465551	-0.000623779296875	0.93170166015625
603	0.93017578125	21.1927379464935	-0.00068450927734375	0.9295654296875
604	0.927734375	21.2171379464319	-0.00071014404296875	0.926513671875
605	0.92529296875	21.2415379463703	-0.00074493408203125	0.92498779296875
606	0.9228515625	21.2659379463087	-0.00079376220703125	0.92193603515625
607	0.92041015625	21.2903379462471	-0.0008074951171875	0.9197998046875
608	0.91796875	21.3147379461855	-0.0008734130859375	0.916748046875
609	0.91552734375	21.3391379461239	-0.00087127685546875	0.914306640625
610	0.9130859375	21.3635379460623	-0.00093841552734375	0.911865234375
611	0.91064453125	21.3879379460006	-0.00094390869140625	0.90972900390625
612	0.908203125	21.412337945939	-0.0009967041015625	0.9075927734375
613	0.90576171875	21.4367379458774	-0.00102081298828125	0.90484619140625
614	0.9033203125	21.4611379458158	-0.00104522705078125	0.9027099609375
615	0.90087890625	21.4855379457542	-0.0010943603515625	0.9002685546875
616	0.8984375	21.5099379456926	-0.00109710693359375	0.89813232421875
617	0.89599609375	21.534337945631	-0.0011639404296875	0.89508056640625
618	0.8935546875	21.5587379455694	-0.001153564453125	0.892333984375
619	0.89111328125	21.5831379455078	-0.00121734619140625	0.8905029296875
620	0.888671875	21.6075379454462	-0.00121917724609375	0.88714599609375
621	0.88623046875	21.6319379453846	-0.0012640380859375	0.88531494140625
622	0.8837890625	21.656337945323	-0.0012890625	0.88287353515625
623	0.88134765625	21.6807379452614	-0.00130157470703125	0.88043212890625
624	0.87890625	21.7051379451998	-0.00135406494140625	0.87860107421875
625	0.87646484375	21.7295379451382	-0.00134552001953125	0.875244140625
626	0.8740234375	21.7539379450766	-0.0014117431640625	0.87310791015625
627	0.87158203125	21.778337945015	-0.0013958740234375	0.870361328125
628	0.869140625	21.8027379449534	-0.001455078125	0.8685302734375
629	0.86669921875	21.8271379448918	-0.00145660400390625	0.865478515625
630	0.8642578125	21.8515379448302	-0.00149200439453125	0.86334228515625
631	0.86181640625	21.8759379447686	-0.00152008056640625	0.860595703125
632	0.859375	21.900337944707	-0.00152374267578125	0.8587646484375
633	0.85693359375	21.9247379446454	-0.00158050537109375	0.85662841796875
634	0.8544921875	21.9491379445838	-0.0015625	0.85357666015625
635	0.85205078125	21.9735379445221	-0.00162994384765625	0.8514404296875
636	0.849609375	21.9979379444605	-0.0016094970703125	0.84869384765625
637	0.84716796875	22.0223379443989	-0.00166473388671875	0.845947265625
638	0.8447265625	22.0467379443373	-0.0016656494140625	0.84381103515625
639	0.84228515625	22.0711379442757	-0.00169219970703125	0.841064453125
640	0.83984375	22.0955379442141	-0.00172515869140625	0.83892822265625
641	0.83740234375	22.1199379441525	-0.00171722412109375	0.83648681640625
642	0.8349609375	22.1443379440909	-0.0017755126953125	0.83465576171875
643	0.83251953125	22.1687379440293	-0.00174957275390625	0.8319091796875
644	0.830078125	22.1931379439677	-0.0018145751953125	0.82916259765625
645	0.82763671875	22.2175379439061	-0.00179229736328125	0.82611083984375
646	0.8251953125	22.2419379438445	-0.001839599609375	0.8245849609375
647	0.82275390625	22.2663379437829	-0.00184417724609375	0.821533203125
648	0.8203125	22.2907379437213	-0.00185882568359375	0.819091796875
649	0.81787109375	22.3151379436597	-0.0018975830078125	0.81695556640625
650	0.8154296875	22.3395379435981	-0.00187774658203125	0.81451416015625
651	0.81298828125	22.3639379435365	-0.00194000244140625	0.8123779296875
652	0.810546875	22.3883379434749	-0.0019061279296875	0.80963134765625
653	0.80810546875	22.4127379434133	-0.001968994140625	0.8074951171875
654	0.8056640625	22.4371379433517	-0.001947021484375	0.8050537109375
655	0.80322265625	22.4615379432901	-0.00198486328125	0.80230712890625
656	0.80078125	22.4859379432285	-0.00199432373046875	0.79925537109375
657	0.79833984375	22.5103379431669	-0.001998291015625	0.79742431640625
658	0.7958984375	22.5347379431053	-0.002041015625	0.79498291015625
659	0.79345703125	22.5591379430437	-0.002012939453125	0.79345703125
660	0.791015625	22.583537942982	-0.0020770263671875	0.7904052734375
661	0.78857421875	22.6079379429204	-0.00203887939453125	0.78704833984375
662	0.7861328125	22.6323379428588	-0.0020989990234375	0.78521728515625
663	0.78369140625	22.6567379427972	-0.002078857421875	0.78277587890625
664	0.78125	22.6811379427356	-0.002109375	0.780029296875
665	0.77880859375	22.705537942674	-0.00212493896484375	0.77850341796875
666	0.7763671875	22.7299379426124	-0.00211761474609375	0.7757568359375
667	0.77392578125	22.7543379425508	-0.0021673583984375	0.7733154296875
668	0.771484375	22.7787379424892	-0.00213165283203125	0.770263671875
669	0.76904296875	22.8031379424276	-0.00219635009765625	0.76812744140625
670	0.7666015625	22.827537942366	-0.00215728759765625	0.765380859375
671	0.76416015625	22.8519379423044	-0.0022113037109375	0.7635498046875
672	0.76171875	22.8763379422428	-0.00219512939453125	0.760498046875
673	0.75927734375	22.9007379421812	-0.00221435546875	0.75836181640625
674	0.7568359375	22.9251379421196	-0.002237548828125	0.7562255859375
675	0.75439453125	22.949537942058	-0.00221954345703125	0.75408935546875
676	0.751953125	22.9739379419964	-0.00227630615234375	0.75164794921875
677	0.74951171875	22.9983379419348	-0.002232666015625	0.749542236328125
678	0.7470703125	23.0227379418732	-0.00229888916015625	0.747161865234375
679	0.74462890625	23.0471379418116	-0.00226104736328125	0.744720458984375
680	0.7421875	23.07153794175	-0.00230560302734375	0.742340087890625
681	0.73974609375	23.0959379416884	-0.00229766845703125	0.73992919921875
682	0.7373046875	23.1203379416268	-0.00230255126953125	0.737396240234375
683	0.73486328125	23.1447379415652	-0.00233612060546875	0.7349853515625
684	0.732421875	23.1691379415035	-0.00230560302734375	0.7325439453125
685	0.72998046875	23.1935379414419	-0.00236602783203125	0.730133056640625
686	0.7275390625	23.2179379413803	-0.00231964111328125	0.727691650390625
687	0.72509765625	23.2423379413187	-0.0023809814453125	0.72528076171875
688	0.72265625	23.2667379412571	-0.00234619140625	0.7227783203125
689	0.72021484375	23.2911379411955	-0.00238250732421875	0.72039794921875
690	0.7177734375	23.3155379411339	-0.00238250732421875	0.717987060546875
691	0.71533203125	23.3399379410723	-0.00237762451171875	0.715423583984375
692	0.712890625	23.3643379410107	-0.00241851806640625	0.713165283203125
693	0.71044921875	23.3887379409491	-0.00237945556640625	0.710540771484375
694	0.7080078125	23.4131379408875	-0.00244293212890625	0.708221435546875
695	0.70556640625	23.4375379408259	-0.002393798828125	0.70574951171875
696	0.703125	23.4619379407643	-0.002452392578125	0.703277587890625
697	0.70068359375	23.4863379407027	-0.0024237060546875	0.700897216796875
698	0.6982421875	23.5107379406411	-0.00245025634765625	0.698394775390625
699	0.69580078125	23.5351379405795	-0.002462158203125	0.696075439453125
700	0.693359375	23.5595379405179	-0.00244537353515625	0.69354248046875
701	0.69091796875	23.5839379404563	-0.0024932861328125	0.691162109375
702	0.6884765625	23.6083379403947	-0.002447509765625	0.6885986328125
703	0.68603515625	23.6327379403331	-0.002513427734375	0.686279296875
704	0.68359375	23.6571379402715	-0.0024627685546875	0.683807373046875
705	0.68115234375	23.6815379402099	-0.0025146484375	0.681396484375
706	0.6787109375	23.7059379401483	-0.002493896484375	0.678985595703125
707	0.67626953125	23.7303379400867	-0.00250885009765625	0.676422119140625
708	0.673828125	23.7547379400251	-0.0025286865234375	0.674072265625
709	0.67138671875	23.7791379399634	-0.00250244140625	0.67156982421875
710	0.6689453125	23.8035379399018	-0.002557373046875	0.66925048828125
711	0.66650390625	23.8279379398402	-0.002506103515625	0.66668701171875
712	0.6640625	23.8523379397786	-0.00257049560546875	0.664337158203125
713	0.66162109375	23.876737939717	-0.00252471923828125	0.661865234375
714	0.6591796875	23.9011379396554	-0.00256866455078125	0.659393310546875
715	0.65673828125	23.9255379395938	-0.0025537109375	0.657073974609375
716	0.654296875	23.9499379395322	-0.002557373046875	0.654510498046875
717	0.65185546875	23.9743379394706	-0.00258636474609375	0.652191162109375
718	0.6494140625	23.998737939409	-0.002547607421875	0.649627685546875
719	0.64697265625	24.0231379393474	-0.0026068115234375	0.64727783203125
720	0.64453125	24.0475379392858	-0.002552490234375	0.644744873046875
721	0.64208984375	24.0719379392242	-0.0026141357421875	0.64239501953125
722	0.6396484375	24.0963379391626	-0.0025738525390625	0.63995361328125
723	0.63720703125	24.120737939101	-0.00260833740234375	0.637451171875
724	0.634765625	24.1451379390394	-0.00260498046875	0.63507080078125
725	0.63232421875	24.1695379389778	-0.00259521484375	0.632537841796875
726	0.6298828125	24.1939379389162	-0.002635498046875	0.630157470703125
727	0.62744140625	24.2183379388546	-0.00258941650390625	0.627716064453125
728	0.625	24.242737938793	-0.0026513671875	0.625396728515625
729	0.62255859375	24.2671379387314	-0.00259765625	0.622772216796875
730	0.6201171875	24.2915379386698	-0.0026544189453125	0.620391845703125
731	0.61767578125	24.3159379386082	-0.00262054443359375	0.617919921875
732	0.615234375	24.3403379385466	-0.00264556884765625	0.615447998046875
733	0.61279296875	24.364737938485	-0.00265350341796875	0.61309814453125
734	0.6103515625	24.3891379384233	-0.0026324462890625	0.610595703125
735	0.60791015625	24.4135379383617	-0.0026812744140625	0.60821533203125
736	0.60546875	24.4379379383001	-0.00263031005859375	0.60577392578125
737	0.60302734375	24.4623379382385	-0.002694091796875	0.6033935546875
738	0.6005859375	24.4867379381769	-0.0026416015625	0.600921630859375
739	0.59814453125	24.5111379381153	-0.00269317626953125	0.59844970703125
740	0.595703125	24.5355379380537	-0.00266815185546875	0.595977783203125
741	0.59326171875	24.5599379379921	-0.002679443359375	0.593597412109375
742	0.5908203125	24.5843379379305	-0.00269866943359375	0.591156005859375
743	0.58837890625	24.6087379378689	-0.002667236328125	0.588653564453125
744	0.5859375	24.6331379378073	-0.00272247314453125	0.586273193359375
745	0.58349609375	24.6575379377457	-0.0026654052734375	0.583740234375
746	0.5810546875	24.6819379376841	-0.00272857666015625	0.581390380859375
747	0.57861328125	24.7063379376225	-0.00267913818359375	0.578887939453125
748	0.576171875	24.7307379375609	-0.002720947265625	0.57647705078125
749	0.57373046875	24.7551379374993	-0.002705078125	0.5740966796875
750	0.5712890625	24.7795379374377	-0.002703857421875	0.57159423828125
751	0.56884765625	24.8039379373761	-0.00273284912109375	0.5692138671875
752	0.56640625	24.8283379373145	-0.00269134521484375	0.566741943359375
753	0.56396484375	24.8527379372529	-0.00275146484375	0.564300537109375
754	0.5615234375	24.8771379371913	-0.00269134521484375	0.561767578125
755	0.55908203125	24.9015379371297	-0.0027520751953125	0.55938720703125
756	0.556640625	24.9259379370681	-0.00270782470703125	0.55694580078125
757	0.55419921875	24.9503379370065	-0.00273895263671875	0.554534912109375
758	0.5517578125	24.9747379369448	-0.0027349853515625	0.5521240234375
759	0.54931640625	24.9991379368832	-0.002720947265625	0.549591064453125
760	0.546875	25.0235379368216	-0.00276275634765625	0.547210693359375
761	0.54443359375	25.04793793676	-0.00271209716796875	0.54473876953125
762	0.5419921875	25.0723379366984	-0.00277679443359375	0.542327880859375
763	0.53955078125	25.0967379366368	-0.00271728515625	0.53985595703125
764	0.537109375	25.1211379365752	-0.00277435302734375	0.537506103515625
765	0.53466796875	25.1455379365136	-0.0027398681640625	0.53497314453125
766	0.5322265625	25.169937936452	-0.00276092529296875	0.532562255859375
767	0.52978515625	25.1943379363904	-0.00277099609375	0.5301513671875
768	0.52734375	25.2187379363288	-0.0027459716796875	0.52764892578125
769	0.52490234375	25.2431379362672	-0.00279541015625	0.5252685546875
770	0.5224609375	25.2675379362056	-0.00273895263671875	0.5228271484375
771	0.52001953125	25.291937936144	-0.00280426025390625	0.520355224609375
772	0.517578125	25.3163379360824	-0.00274871826171875	0.517852783203125
773	0.51513671875	25.3407379360208	-0.00279815673828125	0.515533447265625
774	0.5126953125	25.3651379359592	-0.0027728271484375	0.513031005859375
775	0.51025390625	25.3895379358976	-0.00278076171875	0.510589599609375
776	0.5078125	25.413937935836	-0.00280120849609375	0.508209228515625
777	0.50537109375	25.4383379357744	-0.0027642822265625	0.505645751953125
778	0.5029296875	25.4627379357128	-0.00281951904296875	0.50341796875
779	0.50048828125	25.4871379356512	-0.00275970458984375	0.500823974609375
780	0.498046875	25.5115379355896	-0.002823486328125	0.4984130859375
781	0.49560546875	25.535937935528	-0.00277191162109375	0.496002197265625
782	0.4931640625	25.5603379354664	-0.00281036376953125	0.49346923828125
783	0.49072265625	25.5847379354047	-0.00279541015625	0.491119384765625
784	0.48828125	25.6091379353431	-0.0027886962890625	0.488677978515625
785	0.48583984375	25.6335379352815	-0.0028204345703125	0.4862060546875
786	0.4833984375	25.6579379352199	-0.0027728271484375	0.483734130859375
787	0.48095703125	25.6823379351583	-0.002833251953125	0.481353759765625
788	0.478515625	25.7067379350967	-0.00277099609375	0.4788818359375
789	0.47607421875	25.7311379350351	-0.00283050537109375	0.47650146484375
790	0.4736328125	25.7555379349735	-0.002786865234375	0.4739990234375
791	0.47119140625	25.7799379349119	-0.0028143310546875	0.4715576171875
792	0.46875	25.8043379348503	-0.00281280517578125	0.469146728515625
793	0.46630859375	25.8287379347887	-0.00279449462890625	0.466644287109375
794	0.4638671875	25.8531379347271	-0.0028363037109375	0.464324951171875
795	0.46142578125	25.8775379346655	-0.002781982421875	0.46173095703125
796	0.458984375	25.9019379346039	-0.0028472900390625	0.459442138671875
797	0.45654296875	25.9263379345423	-0.00278778076171875	0.4569091796875
798	0.4541015625	25.9507379344807	-0.00284210205078125	0.4544677734375
799	0.45166015625	25.9751379344191	-0.00280914306640625	0.45208740234375
800	0.44921875	25.9995379343575	-0.00282562255859375	0.4495849609375
801	0.44677734375	26.0239379342959	-0.00283660888671875	0.447265625
802	0.4443359375	26.0483379342343	-0.0028070068359375	0.4447021484375
803	0.44189453125	26.0727379341727	-0.00285858154296875	0.4423828125
804	0.439453125	26.0971379341111	-0.002799072265625	0.4398193359375
805	0.43701171875	26.1215379340495	-0.0028656005859375	0.437530517578125
806	0.4345703125	26.1459379339879	-0.002808837890625	0.434906005859375
807	0.43212890625	26.1703379339262	-0.00285430908203125	0.43255615234375
808	0.4296875	26.1947379338646	-0.00283172607421875	0.4300537109375
809	0.42724609375	26.219137933803	-0.00283447265625	0.427642822265625
810	0.4248046875	26.2435379337414	-0.00285858154296875	0.425262451171875
811	0.42236328125	26.2679379336798	-0.0028179931640625	0.4227294921875
812	0.419921875	26.2923379336182	-0.00287628173828125	0.420379638671875
813	0.41748046875	26.3167379335566	-0.002813720703125	0.4178466796875
814	0.4150390625	26.341137933495	-0.00287506103515625	0.41546630859375
815	0.41259765625	26.3655379334334	-0.00282470703125	0.412994384765625
816	0.41015625	26.3899379333718	-0.0028594970703125	0.41058349609375
817	0.40771484375	26.4143379333102	-0.002847900390625	0.408233642578125
818	0.4052734375	26.4387379332486	-0.00283660888671875	0.4056396484375
819	0.40283203125	26.463137933187	-0.0028704833984375	0.4033203125
820	0.400390625	26.4875379331254	-0.00281951904296875	0.400787353515625
821	0.39794921875	26.5119379330638	-0.00288177490234375	0.39837646484375
822	0.3955078125	26.5363379330022	-0.002818603515625	0.395904541015625
823	0.39306640625	26.5607379329406	-0.00287506103515625	0.3935546875
824	0.390625	26.585137932879	-0.0028338623046875	0.391021728515625
825	0.38818359375	26.6095379328174	-0.00285736083984375	0.38861083984375
826	0.3857421875	26.6339379327558	-0.002860107421875	0.38623046875
827	0.38330078125	26.6583379326942	-0.0028369140625	0.383697509765625
828	0.380859375	26.6827379326326	-0.0028814697265625	0.38134765625
829	0.37841796875	26.707137932571	-0.0028240966796875	0.3787841796875
830	0.3759765625	26.7315379325094	-0.00288970947265625	0.37640380859375
831	0.37353515625	26.7559379324478	-0.00282958984375	0.37396240234375
832	0.37109375	26.7803379323861	-0.002880859375	0.371490478515625
833	0.36865234375	26.8047379323245	-0.0028509521484375	0.369110107421875
834	0.3662109375	26.8291379322629	-0.00286285400390625	0.366607666015625
835	0.36376953125	26.8535379322013	-0.00287872314453125	0.3642578125
836	0.361328125	26.8779379321397	-0.00284423828125	0.3616943359375
837	0.35888671875	26.9023379320781	-0.002899169921875	0.359375
838	0.3564453125	26.9267379320165	-0.00283843994140625	0.356842041015625
839	0.35400390625	26.9511379319549	-0.00290374755859375	0.35443115234375
840	0.3515625	26.9755379318933	-0.0028485107421875	0.35198974609375
841	0.34912109375	26.9999379318317	-0.002891845703125	0.34954833984375
842	0.3466796875	27.0243379317701	-0.00287322998046875	0.347137451171875
843	0.34423828125	27.0487379317085	-0.0028717041015625	0.344635009765625
844	0.341796875	27.0731379316469	-0.00290008544921875	0.34228515625
845	0.33935546875	27.0975379315853	-0.00285430908203125	0.3397216796875
846	0.3369140625	27.1219379315237	-0.002913818359375	0.337371826171875
847	0.33447265625	27.1463379314621	-0.00284942626953125	0.3348388671875
848	0.33203125	27.1707379314005	-0.00291107177734375	0.33258056640625
849	0.32958984375	27.1951379313389	-0.00286163330078125	0.329986572265625
850	0.3271484375	27.2195379312773	-0.0028924560546875	0.32757568359375
851	0.32470703125	27.2439379312157	-0.00288604736328125	0.3251953125
852	0.322265625	27.2683379311541	-0.00286895751953125	0.32269287109375
853	0.31982421875	27.2927379310925	-0.00290771484375	0.320281982421875
854	0.3173828125	27.3171379310309	-0.0028533935546875	0.317779541015625
855	0.31494140625	27.3415379309693	-0.002916259765625	0.3154296875
856	0.3125	27.3659379309076	-0.002852783203125	0.312957763671875
857	0.31005859375	27.390337930846	-0.00290863037109375	0.310516357421875
858	0.3076171875	27.4147379307844	-0.0028704833984375	0.30804443359375
859	0.30517578125	27.4391379307228	-0.00288818359375	0.30560302734375
860	0.302734375	27.4635379306612	-0.00289520263671875	0.30316162109375
861	0.30029296875	27.4879379305996	-0.00286651611328125	0.3006591796875
862	0.2978515625	27.512337930538	-0.0029150390625	0.29833984375
863	0.29541015625	27.5367379304764	-0.00285491943359375	0.295806884765625
864	0.29296875	27.5611379304148	-0.002921142578125	0.29345703125
865	0.29052734375	27.5855379303532	-0.002862548828125	0.2908935546875
866	0.2880859375	27.6099379302916	-0.00291168212890625	0.288543701171875
867	0.28564453125	27.63433793023	-0.0028857421875	0.28607177734375
868	0.283203125	27.6587379301684	-0.00289154052734375	0.28363037109375
869	0.28076171875	27.6831379301068	-0.00291168212890625	0.28125
870	0.2783203125	27.7075379300452	-0.002872314453125	0.27874755859375
871	0.27587890625	27.7319379299836	-0.0029302978515625	0.2763671875
872	0.2734375	27.756337929922	-0.0028668212890625	0.273834228515625
873	0.27099609375	27.7807379298604	-0.00293121337890625	0.271453857421875
874	0.2685546875	27.8051379297988	-0.00287933349609375	0.26898193359375
875	0.26611328125	27.8295379297372	-0.0029168701171875	0.26654052734375
876	0.263671875	27.8539379296756	-0.00290374755859375	0.26416015625
877	0.26123046875	27.878337929614	-0.0028948974609375	0.261627197265625
878	0.2587890625	27.9027379295524	-0.002928466796875	0.25927734375
879	0.25634765625	27.9271379294908	-0.00287811279296875	0.256744384765625
880	0.25390625	27.9515379294292	-0.002940673828125	0.25439453125
881	0.25146484375	27.9759379293675	-0.00287628173828125	0.251922607421875
882	0.2490234375	28.0003379293059	-0.0029345703125	0.24951171875
883	0.24658203125	28.0247379292443	-0.002890625	0.24700927734375
884	0.244140625	28.0491379291827	-0.00291534423828125	0.244598388671875
885	0.24169921875	28.0735379291211	-0.0029144287109375	0.242218017578125
886	0.2392578125	28.0979379290595	-0.00289215087890625	0.239654541015625
887	0.23681640625	28.1223379289979	-0.002935791015625	0.23736572265625
888	0.234375	28.1467379289363	-0.00287689208984375	0.234832763671875
889	0.23193359375	28.1711379288747	-0.00294189453125	0.232421875
890	0.2294921875	28.1955379288131	-0.00287872314453125	0.229949951171875
891	0.22705078125	28.2199379287515	-0.0029302978515625	0.227508544921875
892	0.224609375	28.2443379286899	-0.00289764404296875	0.225128173828125
893	0.22216796875	28.2687379286283	-0.00291015625	0.22265625
894	0.2197265625	28.2931379285667	-0.00292388916015625	0.22027587890625
895	0.21728515625	28.3175379285051	-0.002889404296875	0.217803955078125
896	0.21484375	28.3419379284435	-0.00294342041015625	0.215362548828125
897	0.21240234375	28.3663379283819	-0.00288116455078125	0.212860107421875
898	0.2099609375	28.3907379283203	-0.00294677734375	0.210418701171875
899	0.20751953125	28.4151379282587	-0.0028900146484375	0.207977294921875
900	0.205078125	28.4395379281971	-0.0029345703125	0.20550537109375
901	0.20263671875	28.4639379281355	-0.00291412353515625	0.203155517578125
902	0.2001953125	28.4883379280739	-0.002913818359375	0.20062255859375
903	0.19775390625	28.5127379280123	-0.00294189453125	0.19830322265625
904	0.1953125	28.5371379279507	-0.0028961181640625	0.19573974609375
905	0.19287109375	28.561537927889	-0.00295745849609375	0.19342041015625
906	0.1904296875	28.5859379278274	-0.00289306640625	0.190887451171875
907	0.18798828125	28.6103379277658	-0.00295654296875	0.18853759765625
908	0.185546875	28.6347379277042	-0.00290740966796875	0.186004638671875
909	0.18310546875	28.6591379276426	-0.0029400634765625	0.18359375
910	0.1806640625	28.683537927581	-0.002933349609375	0.18121337890625
911	0.17822265625	28.7079379275194	-0.00291717529296875	0.178619384765625
912	0.17578125	28.7323379274578	-0.00295623779296875	0.17633056640625
913	0.17333984375	28.7567379273962	-0.00290069580078125	0.173828125
914	0.1708984375	28.7811379273346	-0.0029644775390625	0.17144775390625
915	0.16845703125	28.805537927273	-0.00290008544921875	0.168914794921875
916	0.166015625	28.8299379272114	-0.00295562744140625	0.16656494140625
917	0.16357421875	28.8543379271498	-0.002916259765625	0.164154052734375
918	0.1611328125	28.8787379270882	-0.00293487548828125	0.161590576171875
919	0.15869140625	28.9031379270266	-0.00294158935546875	0.1591796875
920	0.15625	28.927537926965	-0.0029119873046875	0.156707763671875
921	0.15380859375	28.9519379269034	-0.0029595947265625	0.15435791015625
922	0.1513671875	28.9763379268418	-0.00289825439453125	0.151824951171875
923	0.14892578125	29.0007379267802	-0.002962646484375	0.14947509765625
924	0.146484375	29.0251379267186	-0.00290283203125	0.147003173828125
925	0.14404296875	29.049537926657	-0.00295074462890625	0.144561767578125
926	0.1416015625	29.0739379265954	-0.00292388916015625	0.142120361328125
927	0.13916015625	29.0983379265338	-0.0029290771484375	0.1396484375
928	0.13671875	29.1227379264722	-0.00294891357421875	0.13726806640625
929	0.13427734375	29.1471379264106	-0.00290863037109375	0.134735107421875
930	0.1318359375	29.1715379263489	-0.0029669189453125	0.132415771484375
931	0.12939453125	29.1959379262873	-0.00290191650390625	0.1298828125
932	0.126953125	29.2203379262257	-0.00296661376953125	0.12750244140625
933	0.12451171875	29.2447379261641	-0.0029144287109375	0.125030517578125
934	0.1220703125	29.2691379261025	-0.00295166015625	0.12255859375
935	0.11962890625	29.2935379260409	-0.002939453125	0.120147705078125
936	0.1171875	29.3179379259793	-0.002930908203125	0.11767578125
937	0.11474609375	29.3423379259177	-0.00296478271484375	0.115264892578125
938	0.1123046875	29.3667379258561	-0.0029150390625	0.112762451171875
939	0.10986328125	29.3911379257945	-0.00297821044921875	0.1104736328125
940	0.107421875	29.4155379257329	-0.002913818359375	0.10784912109375
941	0.10498046875	29.4399379256713	-0.0029742431640625	0.10546875
942	0.1025390625	29.4643379256097	-0.00293060302734375	0.103057861328125
943	0.10009765625	29.4887379255481	-0.0029559326171875	0.10064697265625
944	0.09765625	29.5131379254865	-0.00295654296875	0.09820556640625
945	0.09521484375	29.5375379254249	-0.00293243408203125	0.095733642578125
946	0.0927734375	29.5619379253633	-0.002977294921875	0.093353271484375
947	0.09033203125	29.5863379253017	-0.0029180908203125	0.0908203125
948	0.087890625	29.6107379252401	-0.00298370361328125	0.088409423828125
949	0.08544921875	29.6351379251785	-0.00292083740234375	0.085968017578125
950	0.0830078125	29.6595379251169	-0.0029718017578125	0.08355712890625
951	0.08056640625	29.6839379250553	-0.00293914794921875	0.081085205078125
952	0.078125	29.7083379249937	-0.00294952392578125	0.078643798828125
953	0.07568359375	29.7327379249321	-0.00296356201171875	0.076202392578125
954	0.0732421875	29.7571379248704	-0.0029266357421875	0.073699951171875
955	0.07080078125	29.7815379248088	-0.00298065185546875	0.0714111328125
956	0.068359375	29.8059379247472	-0.00291717529296875	0.068878173828125
957	0.06591796875	29.8303379246856	-0.002982177734375	0.06646728515625
958	0.0634765625	29.854737924624	-0.002926025390625	0.06402587890625
959	0.06103515625	29.8791379245624	-0.00296722412109375	0.061614990234375
960	0.05859375	29.9035379245008	-0.002947998046875	0.059173583984375
961	0.05615234375	29.9279379244392	-0.00294464111328125	0.056671142578125
962	0.0537109375	29.9523379243776	-0.0029736328125	0.054290771484375
963	0.05126953125	29.976737924316	-0.00292694091796875	0.051788330078125
964	0.048828125	30.0011379242544	-0.00298828125	0.0494384765625
965	0.04638671875	30.0255379241928	-0.00292327880859375	0.04654541015625
966	0.0439453125	30.0499379241312	-0.0029864501953125	0.0441680908203125
967	0.04150390625	30.0743379240696	-0.00293792724609375	0.0416961669921875
968	0.0390625	30.098737924008	-0.00297027587890625	0.039276123046875
969	0.03662109375	30.1231379239464	-0.00296478271484375	0.0368377685546875
970	0.0341796875	30.1475379238848	-0.00294952392578125	0.034332275390625
971	0.03173828125	30.1719379238232	-0.00299102783203125	0.03199462890625
972	0.029296875	30.1963379237616	-0.00293609619140625	0.029443359375
973	0.02685546875	30.2207379237	-0.0030023193359375	0.027117919921875
974	0.0244140625	30.2451379236384	-0.002938232421875	0.0245697021484375
975	0.02197265625	30.2695379235768	-0.00299560546875	0.022186279296875
976	0.01953125	30.2939379235152	-0.00295745849609375	0.0197235107421875
977	0.01708984375	30.3183379234536	-0.00297607421875	0.01727294921875
978	0.0146484375	30.342737923392	-0.00298431396484375	0.014874267578125
979	0.01220703125	30.3671379233303	-0.0029541015625	0.0123809814453125
980	0.009765625	30.3915379232687	-0.0030047607421875	0.0100128173828125
981	0.00732421875	30.4159379232071	-0.0029425048828125	0.007476806640625
982	0.0048828125	30.4403379231455	-0.00300811767578125	0.00514831542968749
983	0.00244140625	30.4647379230839	-0.0029473876953125	0.00260009765624999
984	0	30.4891379230223	-0.002994384765625	0.000222778320312506
985	0.00244140625	30.5135379229607	-0.00296478271484375	0.00266113281249999
986	0.0048828125	30.5379379228991	-0.002965087890625	0.0050689697265625
