Index	Potential applied (V)	Time (s)	WE(1).Current (A)	WE(1).Potential (V)
1	0.00244140625	226.876026427193	-0.0014276123046875	0.00260009765624999
2	0.0048828125	226.900426427131	-0.00146087646484375	0.0050933837890625
3	0.00732421875	226.92482642707	-0.0014190673828125	0.00750122070312501
4	0.009765625	226.949226427008	-0.001455078125	0.0099761962890625
5	0.01220703125	226.973626426947	-0.00141845703125	0.012359619140625
6	0.0146484375	226.998026426885	-0.00144500732421875	0.014837646484375
7	0.01708984375	227.022426426823	-0.0014385986328125	0.0172637939453125
8	0.01953125	227.046826426762	-0.00142852783203125	0.0196929931640625
9	0.02197265625	227.0712264267	-0.00144805908203125	0.0221832275390625
10	0.0244140625	227.095626426639	-0.001416015625	0.024578857421875
11	0.02685546875	227.120026426577	-0.0014581298828125	0.027081298828125
12	0.029296875	227.144426426515	-0.001414794921875	0.0294525146484375
13	0.03173828125	227.168826426454	-0.00144378662109375	0.03187255859375
14	0.0341796875	227.193226426392	-0.0014227294921875	0.0343536376953125
15	0.03662109375	227.217626426331	-0.001431884765625	0.0367706298828125
16	0.0390625	227.242026426269	-0.0014434814453125	0.03924560546875
17	0.04150390625	227.266426426207	-0.00141754150390625	0.0416595458984375
18	0.0439453125	227.290826426146	-0.00144927978515625	0.0441741943359375
19	0.04638671875	227.315226426084	-0.00140838623046875	0.0465423583984375
20	0.048828125	227.339626426023	-0.00144989013671875	0.0490142822265625
21	0.05126953125	227.364026425961	-0.001417236328125	0.051513671875
22	0.0537109375	227.388426425899	-0.001431884765625	0.053985595703125
23	0.05615234375	227.412826425838	-0.001429443359375	0.056427001953125
24	0.05859375	227.437226425776	-0.0014190673828125	0.058868408203125
25	0.06103515625	227.461626425715	-0.0014471435546875	0.061370849609375
26	0.0634765625	227.486026425653	-0.00140838623046875	0.06365966796875
27	0.06591796875	227.510426425591	-0.00144500732421875	0.06622314453125
28	0.068359375	227.53482642553	-0.001405029296875	0.068572998046875
29	0.07080078125	227.559226425468	-0.001436767578125	0.071044921875
30	0.0732421875	227.583626425407	-0.00142333984375	0.073486328125
31	0.07568359375	227.608026425345	-0.00141998291015625	0.075897216796875
32	0.078125	227.632426425283	-0.0014337158203125	0.078369140625
33	0.08056640625	227.656826425222	-0.0014068603515625	0.08074951171875
34	0.0830078125	227.68122642516	-0.00144439697265625	0.0833740234375
35	0.08544921875	227.705626425099	-0.00140106201171875	0.085693359375
36	0.087890625	227.730026425037	-0.00143310546875	0.088104248046875
37	0.09033203125	227.754426424975	-0.00140625	0.090545654296875
38	0.0927734375	227.778826424914	-0.00142303466796875	0.09295654296875
39	0.09521484375	227.803226424852	-0.00142791748046875	0.095458984375
40	0.09765625	227.827626424791	-0.00140838623046875	0.097869873046875
41	0.10009765625	227.852026424729	-0.0014361572265625	0.10040283203125
42	0.1025390625	227.876426424667	-0.00139862060546875	0.102752685546875
43	0.10498046875	227.900826424606	-0.001441650390625	0.105255126953125
44	0.107421875	227.925226424544	-0.00140350341796875	0.107666015625
45	0.10986328125	227.949626424483	-0.00142486572265625	0.11004638671875
46	0.1123046875	227.974026424421	-0.001414794921875	0.112548828125
47	0.11474609375	227.998426424359	-0.00141265869140625	0.114959716796875
48	0.1171875	228.022826424298	-0.001434326171875	0.117431640625
49	0.11962890625	228.047226424236	-0.00140045166015625	0.11981201171875
50	0.1220703125	228.071626424174	-0.001435546875	0.12237548828125
51	0.12451171875	228.096026424113	-0.00139404296875	0.124755859375
52	0.126953125	228.120426424051	-0.0014306640625	0.127166748046875
53	0.12939453125	228.14482642399	-0.00140869140625	0.129669189453125
54	0.1318359375	228.169226423928	-0.00141326904296875	0.132110595703125
55	0.13427734375	228.193626423866	-0.00142059326171875	0.134552001953125
56	0.13671875	228.218026423805	-0.00140045166015625	0.136932373046875
57	0.13916015625	228.242426423743	-0.0014349365234375	0.139373779296875
58	0.1416015625	228.266826423682	-0.001392822265625	0.14178466796875
59	0.14404296875	228.29122642362	-0.0014276123046875	0.144287109375
60	0.146484375	228.315626423558	-0.0013934326171875	0.14666748046875
61	0.14892578125	228.340026423497	-0.00141693115234375	0.149169921875
62	0.1513671875	228.364426423435	-0.00141326904296875	0.15155029296875
63	0.15380859375	228.388826423374	-0.00140045166015625	0.154052734375
64	0.15625	228.413226423312	-0.00142181396484375	0.156524658203125
65	0.15869140625	228.43762642325	-0.001387939453125	0.15887451171875
66	0.1611328125	228.462026423189	-0.00142974853515625	0.161407470703125
67	0.16357421875	228.486426423127	-0.00138824462890625	0.16375732421875
68	0.166015625	228.510826423066	-0.0014141845703125	0.166168212890625
69	0.16845703125	228.535226423004	-0.00139678955078125	0.168670654296875
70	0.1708984375	228.559626422942	-0.00140167236328125	0.17108154296875
71	0.17333984375	228.584026422881	-0.0014154052734375	0.173553466796875
72	0.17578125	228.608426422819	-0.00138671875	0.17596435546875
73	0.17822265625	228.632826422758	-0.00141876220703125	0.178497314453125
74	0.1806640625	228.657226422696	-0.00137786865234375	0.180877685546875
75	0.18310546875	228.681626422634	-0.0014166259765625	0.183319091796875
76	0.185546875	228.706026422573	-0.00138702392578125	0.1856689453125
77	0.18798828125	228.730426422511	-0.00139801025390625	0.1881103515625
78	0.1904296875	228.75482642245	-0.00139801025390625	0.19061279296875
79	0.19287109375	228.779226422388	-0.00138458251953125	0.19305419921875
80	0.1953125	228.803626422326	-0.00141357421875	0.19549560546875
81	0.19775390625	228.828026422265	-0.00137420654296875	0.1978759765625
82	0.2001953125	228.852426422203	-0.001409912109375	0.200469970703125
83	0.20263671875	228.876826422142	-0.0013726806640625	0.20281982421875
84	0.205078125	228.90122642208	-0.0014019775390625	0.20526123046875
85	0.20751953125	228.925626422018	-0.00139190673828125	0.207672119140625
86	0.2099609375	228.950026421957	-0.0013861083984375	0.21014404296875
87	0.21240234375	228.974426421895	-0.001402587890625	0.21258544921875
88	0.21484375	228.998826421834	-0.0013739013671875	0.21502685546875
89	0.21728515625	229.023226421772	-0.00141387939453125	0.217498779296875
90	0.2197265625	229.04762642171	-0.00137115478515625	0.21990966796875
91	0.22216796875	229.072026421649	-0.00140106201171875	0.222320556640625
92	0.224609375	229.096426421587	-0.0013775634765625	0.22479248046875
93	0.22705078125	229.120826421526	-0.0013897705078125	0.227264404296875
94	0.2294921875	229.145226421464	-0.001397705078125	0.22967529296875
95	0.23193359375	229.169626421402	-0.0013751220703125	0.23211669921875
96	0.234375	229.194026421341	-0.0014044189453125	0.234649658203125
97	0.23681640625	229.218426421279	-0.0013653564453125	0.2369384765625
98	0.2392578125	229.242826421218	-0.00140655517578125	0.239471435546875
99	0.24169921875	229.267226421156	-0.0013720703125	0.241851806640625
100	0.244140625	229.291626421094	-0.00138946533203125	0.244293212890625
101	0.24658203125	229.316026421033	-0.0013836669921875	0.246795654296875
102	0.2490234375	229.340426420971	-0.00137664794921875	0.24920654296875
103	0.25146484375	229.364826420909	-0.00140167236328125	0.25164794921875
104	0.25390625	229.389226420848	-0.001365966796875	0.254058837890625
105	0.25634765625	229.413626420786	-0.0014013671875	0.256622314453125
106	0.2587890625	229.438026420725	-0.00136138916015625	0.259002685546875
107	0.26123046875	229.462426420663	-0.0013946533203125	0.261383056640625
108	0.263671875	229.486826420601	-0.00137847900390625	0.263824462890625
109	0.26611328125	229.51122642054	-0.0013775634765625	0.26629638671875
110	0.2685546875	229.535626420478	-0.00138916015625	0.268768310546875
111	0.27099609375	229.560026420417	-0.00136505126953125	0.271148681640625
112	0.2734375	229.584426420355	-0.001402587890625	0.273651123046875
113	0.27587890625	229.608826420293	-0.0013604736328125	0.2760009765625
114	0.2783203125	229.633226420232	-0.001392822265625	0.278472900390625
115	0.28076171875	229.65762642017	-0.0013641357421875	0.280914306640625
116	0.283203125	229.682026420109	-0.0013818359375	0.283355712890625
117	0.28564453125	229.706426420047	-0.00138519287109375	0.28582763671875
118	0.2880859375	229.730826419985	-0.0013671875	0.288238525390625
119	0.29052734375	229.755226419924	-0.00139312744140625	0.290740966796875
120	0.29296875	229.779626419862	-0.0013568115234375	0.293121337890625
121	0.29541015625	229.804026419801	-0.0013983154296875	0.295623779296875
122	0.2978515625	229.828426419739	-0.00136077880859375	0.298004150390625
123	0.30029296875	229.852826419677	-0.00138214111328125	0.300445556640625
124	0.302734375	229.877226419616	-0.0013714599609375	0.302886962890625
125	0.30517578125	229.901626419554	-0.00136962890625	0.305328369140625
126	0.3076171875	229.926026419493	-0.00139007568359375	0.307830810546875
127	0.31005859375	229.950426419431	-0.001357421875	0.31024169921875
128	0.3125	229.974826419369	-0.0013916015625	0.312744140625
129	0.31494140625	229.999226419308	-0.0013507080078125	0.31512451171875
130	0.3173828125	230.023626419246	-0.00138641357421875	0.317535400390625
131	0.31982421875	230.048026419185	-0.00136474609375	0.319976806640625
132	0.322265625	230.072426419123	-0.0013690185546875	0.322418212890625
133	0.32470703125	230.096826419061	-0.0013763427734375	0.32489013671875
134	0.3271484375	230.121226419	-0.00135650634765625	0.327301025390625
135	0.32958984375	230.145626418938	-0.00139129638671875	0.329833984375
136	0.33203125	230.170026418877	-0.00134979248046875	0.332183837890625
137	0.33447265625	230.194426418815	-0.0013836669921875	0.334625244140625
138	0.3369140625	230.218826418753	-0.001351318359375	0.3370361328125
139	0.33935546875	230.243226418692	-0.001373291015625	0.339508056640625
140	0.341796875	230.26762641863	-0.00137115478515625	0.34197998046875
141	0.34423828125	230.292026418569	-0.00135711669921875	0.34442138671875
142	0.3466796875	230.316426418507	-0.00137969970703125	0.346923828125
143	0.34912109375	230.340826418445	-0.00134552001953125	0.34930419921875
144	0.3515625	230.365226418384	-0.00138671875	0.351837158203125
145	0.35400390625	230.389626418322	-0.001346435546875	0.3541259765625
146	0.3564453125	230.414026418261	-0.001370849609375	0.356597900390625
147	0.35888671875	230.438426418199	-0.00135498046875	0.359100341796875
148	0.361328125	230.462826418137	-0.00135772705078125	0.361480712890625
149	0.36376953125	230.487226418076	-0.00137420654296875	0.363983154296875
150	0.3662109375	230.511626418014	-0.00134429931640625	0.3663330078125
151	0.36865234375	230.536026417952	-0.001376953125	0.368865966796875
152	0.37109375	230.560426417891	-0.00133636474609375	0.37127685546875
153	0.37353515625	230.584826417829	-0.00137359619140625	0.37371826171875
154	0.3759765625	230.609226417768	-0.00134765625	0.376129150390625
155	0.37841796875	230.633626417706	-0.00135589599609375	0.378570556640625
156	0.380859375	230.658026417644	-0.00135894775390625	0.38104248046875
157	0.38330078125	230.682426417583	-0.00134307861328125	0.383453369140625
158	0.3857421875	230.706826417521	-0.00137420654296875	0.38592529296875
159	0.38818359375	230.73122641746	-0.0013336181640625	0.388336181640625
160	0.390625	230.755626417398	-0.00136810302734375	0.390869140625
161	0.39306640625	230.780026417336	-0.00133270263671875	0.39324951171875
162	0.3955078125	230.804426417275	-0.00135772705078125	0.39569091796875
163	0.39794921875	230.828826417213	-0.001351318359375	0.39813232421875
164	0.400390625	230.853226417152	-0.0013409423828125	0.4005126953125
165	0.40283203125	230.87762641709	-0.00135986328125	0.40301513671875
166	0.4052734375	230.902026417028	-0.00132843017578125	0.405426025390625
167	0.40771484375	230.926426416967	-0.0013677978515625	0.407928466796875
168	0.41015625	230.950826416905	-0.0013262939453125	0.410247802734375
169	0.41259765625	230.975226416844	-0.0013525390625	0.4127197265625
170	0.4150390625	230.999626416782	-0.0013336181640625	0.415252685546875
171	0.41748046875	231.02402641672	-0.00134002685546875	0.41766357421875
172	0.419921875	231.048426416659	-0.0013525390625	0.42010498046875
173	0.42236328125	231.072826416597	-0.00132537841796875	0.42254638671875
174	0.4248046875	231.097226416536	-0.00135589599609375	0.425018310546875
175	0.42724609375	231.121626416474	-0.00131500244140625	0.427398681640625
176	0.4296875	231.146026416412	-0.001353759765625	0.42987060546875
177	0.43212890625	231.170426416351	-0.0013238525390625	0.4322509765625
178	0.4345703125	231.194826416289	-0.00133514404296875	0.434722900390625
179	0.43701171875	231.219226416228	-0.00133392333984375	0.437164306640625
180	0.439453125	231.243626416166	-0.00132110595703125	0.439544677734375
181	0.44189453125	231.268026416104	-0.00134918212890625	0.442108154296875
182	0.4443359375	231.292426416043	-0.00131011962890625	0.4444580078125
183	0.44677734375	231.316826415981	-0.00134368896484375	0.446990966796875
184	0.44921875	231.34122641592	-0.00130645751953125	0.44940185546875
185	0.45166015625	231.365626415858	-0.0013336181640625	0.45184326171875
186	0.4541015625	231.390026415796	-0.00132354736328125	0.4542236328125
187	0.45654296875	231.414426415735	-0.0013165283203125	0.456634521484375
188	0.458984375	231.438826415673	-0.00133209228515625	0.459136962890625
189	0.46142578125	231.463226415612	-0.00130279541015625	0.461517333984375
190	0.4638671875	231.48762641555	-0.00134063720703125	0.464019775390625
191	0.46630859375	231.512026415488	-0.00129913330078125	0.4664306640625
192	0.46875	231.536426415427	-0.0013262939453125	0.468841552734375
193	0.47119140625	231.560826415365	-0.00130462646484375	0.4713134765625
194	0.4736328125	231.585226415304	-0.00131378173828125	0.473785400390625
195	0.47607421875	231.609626415242	-0.0013232421875	0.47625732421875
196	0.478515625	231.63402641518	-0.00129913330078125	0.478607177734375
197	0.48095703125	231.658426415119	-0.00132720947265625	0.48114013671875
198	0.4833984375	231.682826415057	-0.0012884521484375	0.483551025390625
199	0.48583984375	231.707226414995	-0.00132720947265625	0.485992431640625
200	0.48828125	231.731626414934	-0.001295166015625	0.4884033203125
201	0.49072265625	231.756026414872	-0.00130950927734375	0.4908447265625
202	0.4931640625	231.780426414811	-0.0013055419921875	0.493316650390625
203	0.49560546875	231.804826414749	-0.00129547119140625	0.495697021484375
204	0.498046875	231.829226414687	-0.00132110595703125	0.498199462890625
205	0.50048828125	231.853626414626	-0.00128448486328125	0.500640869140625
206	0.5029296875	231.878026414564	-0.00131805419921875	0.5030517578125
207	0.50537109375	231.902426414503	-0.00127960205078125	0.505523681640625
208	0.5078125	231.926826414441	-0.00130859375	0.50787353515625
209	0.51025390625	231.951226414379	-0.00129486083984375	0.51031494140625
210	0.5126953125	231.975626414318	-0.00129058837890625	0.512786865234375
211	0.51513671875	232.000026414256	-0.00130340576171875	0.515289306640625
212	0.517578125	232.024426414195	-0.00127655029296875	0.517669677734375
213	0.52001953125	232.048826414133	-0.00131317138671875	0.520172119140625
214	0.5224609375	232.073226414071	-0.001270751953125	0.522613525390625
215	0.52490234375	232.09762641401	-0.0012994384765625	0.5250244140625
216	0.52734375	232.122026413948	-0.00127410888671875	0.5274658203125
217	0.52978515625	232.146426413887	-0.00128631591796875	0.529876708984375
218	0.5322265625	232.170826413825	-0.00129180908203125	0.53228759765625
219	0.53466796875	232.195226413763	-0.00126922607421875	0.5347900390625
220	0.537109375	232.219626413702	-0.00129608154296875	0.537200927734375
221	0.53955078125	232.24402641364	-0.00125762939453125	0.5396728515625
222	0.5419921875	232.268426413579	-0.0012957763671875	0.542144775390625
223	0.54443359375	232.292826413517	-0.00126129150390625	0.544586181640625
224	0.546875	232.317226413455	-0.00127655029296875	0.546966552734375
225	0.54931640625	232.341626413394	-0.00126983642578125	0.549468994140625
226	0.5517578125	232.366026413332	-0.00126129150390625	0.551849365234375
227	0.55419921875	232.390426413271	-0.00128448486328125	0.55438232421875
228	0.556640625	232.414826413209	-0.0012481689453125	0.556732177734375
229	0.55908203125	232.439226413147	-0.001280517578125	0.55926513671875
230	0.5615234375	232.463626413086	-0.00124053955078125	0.561614990234375
231	0.56396484375	232.488026413024	-0.0012701416015625	0.564056396484375
232	0.56640625	232.512426412963	-0.00125396728515625	0.566497802734375
233	0.56884765625	232.536826412901	-0.0012506103515625	0.568878173828125
234	0.5712890625	232.561226412839	-0.0012615966796875	0.5714111328125
235	0.57373046875	232.585626412778	-0.00123565673828125	0.573822021484375
236	0.576171875	232.610026412716	-0.00127044677734375	0.576324462890625
237	0.57861328125	232.634426412655	-0.00122802734375	0.57867431640625
238	0.5810546875	232.658826412593	-0.00125701904296875	0.58111572265625
239	0.58349609375	232.683226412531	-0.0012298583984375	0.5836181640625
240	0.5859375	232.70762641247	-0.00124298095703125	0.585968017578125
241	0.58837890625	232.732026412408	-0.001246337890625	0.58843994140625
242	0.5908203125	232.756426412347	-0.0012249755859375	0.590911865234375
243	0.59326171875	232.780826412285	-0.00124969482421875	0.593353271484375
244	0.595703125	232.805226412223	-0.00121185302734375	0.595794677734375
245	0.59814453125	232.829626412162	-0.0012493896484375	0.598297119140625
246	0.6005859375	232.8540264121	-0.00121368408203125	0.600677490234375
247	0.60302734375	232.878426412038	-0.00122955322265625	0.603118896484375
248	0.60546875	232.902826411977	-0.00122039794921875	0.605621337890625
249	0.60791015625	232.927226411915	-0.00121368408203125	0.608001708984375
250	0.6103515625	232.951626411854	-0.001234130859375	0.6104736328125
251	0.61279296875	232.976026411792	-0.00119873046875	0.6129150390625
252	0.615234375	233.00042641173	-0.00123016357421875	0.6153564453125
253	0.61767578125	233.024826411669	-0.00118988037109375	0.617706298828125
254	0.6201171875	233.049226411607	-0.00121917724609375	0.6201171875
255	0.62255859375	233.073626411546	-0.001201171875	0.622589111328125
256	0.625	233.098026411484	-0.00119842529296875	0.625030517578125
257	0.62744140625	233.122426411422	-0.0012066650390625	0.627532958984375
258	0.6298828125	233.146826411361	-0.001181640625	0.6298828125
259	0.63232421875	233.171226411299	-0.00121429443359375	0.632415771484375
260	0.634765625	233.195626411238	-0.00117218017578125	0.634796142578125
261	0.63720703125	233.220026411176	-0.001199951171875	0.63726806640625
262	0.6396484375	233.244426411114	-0.00117095947265625	0.63970947265625
263	0.64208984375	233.268826411053	-0.00118499755859375	0.64208984375
264	0.64453125	233.293226410991	-0.00118560791015625	0.64459228515625
265	0.64697265625	233.31762641093	-0.00116485595703125	0.64703369140625
266	0.6494140625	233.342026410868	-0.00118743896484375	0.64947509765625
267	0.65185546875	233.366426410806	-0.00114990234375	0.65191650390625
268	0.654296875	233.390826410745	-0.00118621826171875	0.65435791015625
269	0.65673828125	233.415226410683	-0.0011492919921875	0.65673828125
270	0.6591796875	233.439626410622	-0.00116485595703125	0.659210205078125
271	0.66162109375	233.46402641056	-0.001153564453125	0.66168212890625
272	0.6640625	233.488426410498	-0.0011468505859375	0.66412353515625
273	0.66650390625	233.512826410437	-0.00116546630859375	0.666534423828125
274	0.6689453125	233.537226410375	-0.0011297607421875	0.668975830078125
275	0.67138671875	233.561626410314	-0.00115966796875	0.6715087890625
276	0.673828125	233.586026410252	-0.00111907958984375	0.673828125
277	0.67626953125	233.61042641019	-0.00114776611328125	0.676300048828125
278	0.6787109375	233.634826410129	-0.0011279296875	0.6787109375
279	0.68115234375	233.659226410067	-0.00112518310546875	0.68115234375
280	0.68359375	233.683626410006	-0.00113189697265625	0.68359375
281	0.68603515625	233.708026409944	-0.0011065673828125	0.686004638671875
282	0.6884765625	233.732426409882	-0.00113800048828125	0.688507080078125
283	0.69091796875	233.756826409821	-0.00109527587890625	0.690887451171875
284	0.693359375	233.781226409759	-0.0011224365234375	0.69329833984375
285	0.69580078125	233.805626409698	-0.00109222412109375	0.69573974609375
286	0.6982421875	233.830026409636	-0.0011053466796875	0.69818115234375
287	0.70068359375	233.854426409574	-0.001104736328125	0.700714111328125
288	0.703125	233.878826409513	-0.00108428955078125	0.703033447265625
289	0.70556640625	233.903226409451	-0.00110504150390625	0.705596923828125
290	0.7080078125	233.92762640939	-0.00106689453125	0.707977294921875
291	0.71044921875	233.952026409328	-0.00110137939453125	0.710418701171875
292	0.712890625	233.976426409266	-0.001063232421875	0.71282958984375
293	0.71533203125	234.000826409205	-0.001077880859375	0.715240478515625
294	0.7177734375	234.025226409143	-0.00106597900390625	0.717742919921875
295	0.72021484375	234.049626409081	-0.0010589599609375	0.72015380859375
296	0.72265625	234.07402640902	-0.00107574462890625	0.722625732421875
297	0.72509765625	234.098426408958	-0.0010394287109375	0.725067138671875
298	0.7275390625	234.122826408897	-0.00106719970703125	0.7275390625
299	0.72998046875	234.147226408835	-0.00102569580078125	0.72991943359375
300	0.732421875	234.171626408773	-0.00105255126953125	0.732391357421875
301	0.73486328125	234.196026408712	-0.00103118896484375	0.7347412109375
302	0.7373046875	234.22042640865	-0.00102783203125	0.73724365234375
303	0.73974609375	234.244826408589	-0.0010321044921875	0.73968505859375
304	0.7421875	234.269226408527	-0.00100616455078125	0.742156982421875
305	0.74462890625	234.293626408465	-0.00103424072265625	0.74456787109375
306	0.7470703125	234.318026408404	-0.00099090576171875	0.746978759765625
307	0.74951171875	234.342426408342	-0.00101531982421875	0.749420166015625
308	0.751953125	234.366826408281	-0.0009832763671875	0.75164794921875
309	0.75439453125	234.391226408219	-0.0009954833984375	0.7537841796875
310	0.7568359375	234.415626408157	-0.00099212646484375	0.75592041015625
311	0.75927734375	234.440026408096	-0.0009716796875	0.75836181640625
312	0.76171875	234.464426408034	-0.0009893798828125	0.76080322265625
313	0.76416015625	234.488826407973	-0.000950927734375	0.7635498046875
314	0.7666015625	234.513226407911	-0.0009832763671875	0.7659912109375
315	0.76904296875	234.537626407849	-0.00094329833984375	0.7684326171875
316	0.771484375	234.562026407788	-0.00095733642578125	0.7708740234375
317	0.77392578125	234.586426407726	-0.0009417724609375	0.77362060546875
318	0.7763671875	234.610826407665	-0.00093475341796875	0.7757568359375
319	0.77880859375	234.635226407603	-0.00094757080078125	0.7781982421875
320	0.78125	234.659626407541	-0.00091156005859375	0.7806396484375
321	0.78369140625	234.68402640748	-0.000936279296875	0.7830810546875
322	0.7861328125	234.708426407418	-0.00089385986328125	0.78521728515625
323	0.78857421875	234.732826407357	-0.000919189453125	0.787353515625
324	0.791015625	234.757226407295	-0.00089447021484375	0.789794921875
325	0.79345703125	234.781626407233	-0.00089111328125	0.7928466796875
326	0.7958984375	234.806026407172	-0.0008917236328125	0.794677734375
327	0.79833984375	234.83042640711	-0.00086639404296875	0.7977294921875
328	0.80078125	234.854826407049	-0.00089080810546875	0.79986572265625
329	0.80322265625	234.879226406987	-0.0008465576171875	0.80230712890625
330	0.8056640625	234.903626406925	-0.00086822509765625	0.804443359375
331	0.80810546875	234.928026406864	-0.00083343505859375	0.80718994140625
332	0.810546875	234.952426406802	-0.000843505859375	0.809326171875
333	0.81298828125	234.976826406741	-0.00083587646484375	0.81207275390625
334	0.8154296875	235.001226406679	-0.00081390380859375	0.8148193359375
335	0.81787109375	235.025626406617	-0.00082672119140625	0.81695556640625
336	0.8203125	235.050026406556	-0.00078826904296875	0.81939697265625
337	0.82275390625	235.074426406494	-0.0008154296875	0.8221435546875
338	0.8251953125	235.098826406433	-0.000772705078125	0.8245849609375
339	0.82763671875	235.123226406371	-0.00078338623046875	0.8270263671875
340	0.830078125	235.147626406309	-0.00076416015625	0.8294677734375
341	0.83251953125	235.172026406248	-0.0007550048828125	0.83099365234375
342	0.8349609375	235.196426406186	-0.0007623291015625	0.83404541015625
343	0.83740234375	235.220826406125	-0.0007257080078125	0.83648681640625
344	0.83984375	235.245226406063	-0.00074493408203125	0.83892822265625
345	0.84228515625	235.269626406001	-0.00070098876953125	0.8416748046875
346	0.8447265625	235.29402640594	-0.00072113037109375	0.843505859375
347	0.84716796875	235.318426405878	-0.00069183349609375	0.8465576171875
348	0.849609375	235.342826405816	-0.00068572998046875	0.8489990234375
349	0.85205078125	235.367226405755	-0.00068023681640625	0.8514404296875
350	0.8544921875	235.391626405693	-0.00065338134765625	0.85357666015625
351	0.85693359375	235.416026405632	-0.00067047119140625	0.85601806640625
352	0.859375	235.44042640557	-0.000625	0.858154296875
353	0.86181640625	235.464826405508	-0.00064117431640625	0.86090087890625
354	0.8642578125	235.489226405447	-0.00060211181640625	0.86334228515625
355	0.86669921875	235.513626405385	-0.00060821533203125	0.86578369140625
356	0.869140625	235.538026405324	-0.0005938720703125	0.8685302734375
357	0.87158203125	235.562426405262	-0.0005694580078125	0.87066650390625
358	0.8740234375	235.5868264052	-0.0005743408203125	0.87310791015625
359	0.87646484375	235.611226405139	-0.00053314208984375	0.87554931640625
360	0.87890625	235.635626405077	-0.00055206298828125	0.8782958984375
361	0.88134765625	235.660026405016	-0.0005059814453125	0.8807373046875
362	0.8837890625	235.684426404954	-0.0005096435546875	0.8831787109375
363	0.88623046875	235.708826404892	-0.0004833984375	0.88531494140625
364	0.888671875	235.733226404831	-0.0004693603515625	0.887451171875
365	0.89111328125	235.757626404769	-0.000467041015625	0.89019775390625
366	0.8935546875	235.782026404708	-0.000427886962890625	0.89263916015625
367	0.89599609375	235.806426404646	-0.0004361572265625	0.89508056640625
368	0.8984375	235.830826404584	-0.00038873291015625	0.897216796875
369	0.90087890625	235.855226404523	-0.00039874267578125	0.89996337890625
370	0.9033203125	235.879626404461	-0.00036273193359375	0.9027099609375
371	0.90576171875	235.9040264044	-0.000349395751953125	0.90484619140625
372	0.908203125	235.928426404338	-0.0003341064453125	0.9075927734375
373	0.91064453125	235.952826404276	-0.000302490234375	0.91033935546875
374	0.9130859375	235.977226404215	-0.000306060791015625	0.91217041015625
375	0.91552734375	236.001626404153	-0.000256744384765625	0.914306640625
376	0.91796875	236.026026404092	-0.0002598876953125	0.9173583984375
377	0.92041015625	236.05042640403	-0.00021514892578125	0.919189453125
378	0.9228515625	236.074826403968	-0.0002099609375	0.9222412109375
379	0.92529296875	236.099226403907	-0.0001849365234375	0.924072265625
380	0.927734375	236.123626403845	-0.00015460205078125	0.92742919921875
381	0.93017578125	236.148026403784	-0.0001453857421875	0.9295654296875
382	0.9326171875	236.172426403722	-0.000100128173828125	0.931396484375
383	0.93505859375	236.19682640366	-0.000102813720703125	0.933837890625
384	0.9375	236.221226403599	-5.17578125E-05	0.936279296875
385	0.93994140625	236.245626403537	-4.2388916015625E-05	0.93902587890625
386	0.9423828125	236.270026403476	-6.60095214843751E-06	0.94207763671875
387	0.94482421875	236.294426403414	1.6888427734375E-05	0.9442138671875
388	0.947265625	236.318826403352	3.399658203125E-05	0.94635009765625
389	0.94970703125	236.343226403291	7.8887939453125E-05	0.94879150390625
390	0.9521484375	236.367626403229	8.7371826171875E-05	0.950927734375
391	0.95458984375	236.392026403168	0.000139678955078125	0.95367431640625
392	0.95703125	236.416426403106	0.000144561767578125	0.95611572265625
393	0.95947265625	236.440826403044	0.00019073486328125	0.95855712890625
394	0.9619140625	236.465226402983	0.000213836669921875	0.960693359375
395	0.96435546875	236.489626402921	0.00024420166015625	0.9637451171875
396	0.966796875	236.514026402859	0.000282501220703125	0.96588134765625
397	0.96923828125	236.538426402798	0.00029681396484375	0.9686279296875
398	0.9716796875	236.562826402736	0.000350616455078125	0.970458984375
399	0.97412109375	236.587226402675	0.00036444091796875	0.9735107421875
400	0.9765625	236.611626402613	0.00041778564453125	0.97564697265625
401	0.97900390625	236.636026402551	0.000436676025390625	0.97808837890625
402	0.9814453125	236.66042640249	0.000475372314453125	0.98052978515625
403	0.98388671875	236.684826402428	0.00051483154296875	0.982666015625
404	0.986328125	236.709226402367	0.0005413818359375	0.9857177734375
405	0.98876953125	236.733626402305	0.0005926513671875	0.98785400390625
406	0.9912109375	236.758026402243	0.00060821533203125	0.9906005859375
407	0.99365234375	236.782426402182	0.00066619873046875	0.99273681640625
408	0.99609375	236.80682640212	0.00068939208984375	0.99456787109375
409	0.99853515625	236.831226402059	0.00073822021484375	0.997314453125
410	1.0009765625	236.855626401997	0.0007720947265625	1.00067138671875
411	1.00341796875	236.880026401935	0.00080596923828125	1.00250244140625
412	1.005859375	236.904426401874	0.00085784912109375	1.0052490234375
413	1.00830078125	236.928826401812	0.0008843994140625	1.00738525390625
414	1.0107421875	236.953226401751	0.00094390869140625	1.00982666015625
415	1.01318359375	236.977626401689	0.00096649169921875	1.0125732421875
416	1.015625	237.002026401627	0.00102294921875	1.014404296875
417	1.01806640625	237.026426401566	0.00105926513671875	1.016845703125
418	1.0205078125	237.050826401504	0.00110382080078125	1.01959228515625
419	1.02294921875	237.075226401443	0.00115203857421875	1.02203369140625
420	1.025390625	237.099626401381	0.0011846923828125	1.02447509765625
421	1.02783203125	237.124026401319	0.0012457275390625	1.0272216796875
422	1.0302734375	237.148426401258	0.00127685546875	1.0296630859375
423	1.03271484375	237.172826401196	0.0013385009765625	1.031494140625
424	1.03515625	237.197226401135	0.00137237548828125	1.0345458984375
425	1.03759765625	237.221626401073	0.001424560546875	1.036376953125
426	1.0400390625	237.246026401011	0.0014739990234375	1.03912353515625
427	1.04248046875	237.27042640095	0.0015167236328125	1.04156494140625
428	1.044921875	237.294826400888	0.00157562255859375	1.043701171875
429	1.04736328125	237.319226400827	0.00161041259765625	1.046142578125
430	1.0498046875	237.343626400765	0.001676025390625	1.0491943359375
431	1.05224609375	237.368026400703	0.001715087890625	1.05133056640625
432	1.0546875	237.392426400642	0.0017755126953125	1.05377197265625
433	1.05712890625	237.41682640058	0.0018218994140625	1.05621337890625
434	1.0595703125	237.441226400519	0.001871337890625	1.0589599609375
435	1.06201171875	237.465626400457	0.00193115234375	1.060791015625
436	1.064453125	237.490026400395	0.00197479248046875	1.06353759765625
437	1.06689453125	237.514426400334	0.00204132080078125	1.0662841796875
438	1.0693359375	237.538826400272	0.00208099365234375	1.0687255859375
439	1.07177734375	237.563226400211	0.002147216796875	1.07086181640625
440	1.07421875	237.587626400149	0.00219635009765625	1.0736083984375
441	1.07666015625	237.612026400087	0.00225433349609375	1.075439453125
442	1.0791015625	237.636426400026	0.00231201171875	1.07879638671875
443	1.08154296875	237.660826399964	0.00236083984375	1.08062744140625
444	1.083984375	237.685226399902	0.002427978515625	1.08306884765625
445	1.08642578125	237.709626399841	0.00247528076171875	1.08551025390625
446	1.0888671875	237.734026399779	0.002545166015625	1.087646484375
447	1.09130859375	237.758426399718	0.00259307861328125	1.0906982421875
448	1.09375	237.782826399656	0.00265716552734375	1.0931396484375
449	1.09619140625	237.807226399594	0.002716064453125	1.09466552734375
450	1.0986328125	237.831626399533	0.00277313232421875	1.097412109375
451	1.10107421875	237.856026399471	0.00283966064453125	1.1004638671875
452	1.103515625	237.88042639941	0.002889404296875	1.10260009765625
453	1.10595703125	237.904826399348	0.00296234130859375	1.10504150390625
454	1.1083984375	237.929226399286	0.00301483154296875	1.10748291015625
455	1.11083984375	237.953626399225	0.00308502197265625	1.10931396484375
456	1.11328125	237.978026399163	0.0031414794921875	1.11236572265625
457	1.11572265625	238.002426399102	0.00320343017578125	1.11480712890625
458	1.1181640625	238.02682639904	0.00326995849609375	1.11724853515625
459	1.12060546875	238.051226398978	0.0033270263671875	1.11968994140625
460	1.123046875	238.075626398917	0.0033984375	1.12213134765625
461	1.12548828125	238.100026398855	0.003450927734375	1.124267578125
462	1.1279296875	238.124426398794	0.00352294921875	1.1273193359375
463	1.13037109375	238.148826398732	0.003580322265625	1.129150390625
464	1.1328125	238.17322639867	0.0036456298828125	1.131591796875
465	1.13525390625	238.197626398609	0.0037078857421875	1.134033203125
466	1.1376953125	238.222026398547	0.0037652587890625	1.13677978515625
467	1.14013671875	238.246426398486	0.0038323974609375	1.1395263671875
468	1.142578125	238.270826398424	0.003885498046875	1.14166259765625
469	1.14501953125	238.295226398362	0.0039520263671875	1.1444091796875
470	1.1474609375	238.319626398301	0.00400238037109375	1.14654541015625
471	1.14990234375	238.344026398239	0.0040625	1.148681640625
472	1.15234375	238.368426398178	0.00411590576171875	1.15142822265625
473	1.15478515625	238.392826398116	0.0041680908203125	1.1541748046875
474	1.1572265625	238.417226398054	0.00422149658203125	1.156005859375
475	1.15966796875	238.441626397993	0.00426544189453125	1.158447265625
476	1.162109375	238.466026397931	0.00431793212890625	1.160888671875
477	1.16455078125	238.49042639787	0.00435882568359375	1.16363525390625
478	1.1669921875	238.514826397808	0.00440673828125	1.16607666015625
479	1.16943359375	238.539226397746	0.00444549560546875	1.1688232421875
480	1.171875	238.563626397685	0.00448577880859375	1.17095947265625
481	1.17431640625	238.588026397623	0.00452545166015625	1.17340087890625
482	1.1767578125	238.612426397562	0.00456024169921875	1.17584228515625
483	1.17919921875	238.6368263975	0.00459869384765625	1.177978515625
484	1.181640625	238.661226397438	0.00462860107421875	1.18072509765625
485	1.18408203125	238.685626397377	0.00466461181640625	1.18316650390625
486	1.1865234375	238.710026397315	0.0046942138671875	1.185302734375
487	1.18896484375	238.734426397254	0.0047259521484375	1.18804931640625
488	1.19140625	238.758826397192	0.004754638671875	1.19049072265625
489	1.19384765625	238.78322639713	0.00478179931640625	1.1920166015625
490	1.1962890625	238.807626397069	0.004810791015625	1.19537353515625
491	1.19873046875	238.832026397007	0.00483551025390625	1.197509765625
492	1.201171875	238.856426396945	0.00486297607421875	1.20025634765625
493	1.19873046875	238.880826396884	0.00483551025390625	1.197509765625
494	1.1962890625	238.905226396822	0.00481109619140625	1.195068359375
495	1.19384765625	238.929626396761	0.00478302001953125	1.192626953125
496	1.19140625	238.954026396699	0.0047552490234375	1.190185546875
497	1.18896484375	238.978426396637	0.0047271728515625	1.18804931640625
498	1.1865234375	239.002826396576	0.00469451904296875	1.18560791015625
499	1.18408203125	239.027226396514	0.0046661376953125	1.182861328125
500	1.181640625	239.051626396453	0.0046307373046875	1.18072509765625
501	1.17919921875	239.076026396391	0.0046002197265625	1.17828369140625
502	1.1767578125	239.100426396329	0.00456207275390625	1.17584228515625
503	1.17431640625	239.124826396268	0.0045263671875	1.173095703125
504	1.171875	239.149226396206	0.004488525390625	1.170654296875
505	1.16943359375	239.173626396145	0.004447021484375	1.168212890625
506	1.1669921875	239.198026396083	0.0044085693359375	1.16607666015625
507	1.16455078125	239.222426396021	0.0043597412109375	1.1639404296875
508	1.162109375	239.24682639596	0.004320068359375	1.16119384765625
509	1.15966796875	239.271226395898	0.00426910400390625	1.15875244140625
510	1.1572265625	239.295626395837	0.0042236328125	1.156005859375
511	1.15478515625	239.320026395775	0.00417083740234375	1.15386962890625
512	1.15234375	239.344426395713	0.0041162109375	1.15142822265625
513	1.14990234375	239.368826395652	0.00406585693359375	1.1480712890625
514	1.1474609375	239.39322639559	0.0040045166015625	1.14654541015625
515	1.14501953125	239.417626395529	0.0039544677734375	1.14349365234375
516	1.142578125	239.442026395467	0.00388671875	1.14105224609375
517	1.14013671875	239.466426395405	0.00383392333984375	1.13922119140625
518	1.1376953125	239.490826395344	0.0037689208984375	1.13677978515625
519	1.13525390625	239.515226395282	0.00370819091796875	1.134033203125
520	1.1328125	239.539626395221	0.0036474609375	1.13128662109375
521	1.13037109375	239.564026395159	0.003577880859375	1.12945556640625
522	1.1279296875	239.588426395097	0.0035235595703125	1.126708984375
523	1.12548828125	239.612826395036	0.00345123291015625	1.12396240234375
524	1.123046875	239.637226394974	0.0033978271484375	1.12152099609375
525	1.12060546875	239.661626394913	0.00332550048828125	1.11968994140625
526	1.1181640625	239.686026394851	0.00326629638671875	1.11724853515625
527	1.11572265625	239.710426394789	0.00320281982421875	1.114501953125
528	1.11328125	239.734826394728	0.00313690185546875	1.11236572265625
529	1.11083984375	239.759226394666	0.0030804443359375	1.1102294921875
530	1.1083984375	239.783626394605	0.00300689697265625	1.10748291015625
531	1.10595703125	239.808026394543	0.00295654296875	1.104736328125
532	1.103515625	239.832426394481	0.00288543701171875	1.102294921875
533	1.10107421875	239.85682639442	0.00283233642578125	1.1004638671875
534	1.0986328125	239.881226394358	0.0027655029296875	1.097412109375
535	1.09619140625	239.905626394297	0.0027032470703125	1.09527587890625
536	1.09375	239.930026394235	0.0026483154296875	1.09283447265625
537	1.09130859375	239.954426394173	0.00258056640625	1.0894775390625
538	1.0888671875	239.978826394112	0.00253265380859375	1.087646484375
539	1.08642578125	240.00322639405	0.002459716796875	1.08551025390625
540	1.083984375	240.027626393988	0.00241363525390625	1.082763671875
541	1.08154296875	240.052026393927	0.0023486328125	1.080322265625
542	1.0791015625	240.076426393865	0.00229461669921875	1.077880859375
543	1.07666015625	240.100826393804	0.00223785400390625	1.07513427734375
544	1.07421875	240.125226393742	0.00217376708984375	1.07330322265625
545	1.07177734375	240.14962639368	0.00212890625	1.07086181640625
546	1.0693359375	240.174026393619	0.0020611572265625	1.06842041015625
547	1.06689453125	240.198426393557	0.0020208740234375	1.06597900390625
548	1.064453125	240.222826393496	0.0019525146484375	1.063232421875
549	1.06201171875	240.247226393434	0.00190643310546875	1.06109619140625
550	1.0595703125	240.271626393372	0.0018505859375	1.0589599609375
551	1.05712890625	240.296026393311	0.0017950439453125	1.055908203125
552	1.0546875	240.320426393249	0.0017498779296875	1.053466796875
553	1.05224609375	240.344826393188	0.00168365478515625	1.0516357421875
554	1.0498046875	240.369226393126	0.0016485595703125	1.0491943359375
555	1.04736328125	240.393626393064	0.0015838623046875	1.04644775390625
556	1.044921875	240.418026393003	0.001546630859375	1.0443115234375
557	1.04248046875	240.442426392941	0.00148712158203125	1.04156494140625
558	1.0400390625	240.46682639288	0.0014385986328125	1.0394287109375
559	1.03759765625	240.491226392818	0.001395263671875	1.036376953125
560	1.03515625	240.515626392756	0.0013372802734375	1.033935546875
561	1.03271484375	240.540026392695	0.00130401611328125	1.031494140625
562	1.0302734375	240.564426392633	0.0012384033203125	1.0296630859375
563	1.02783203125	240.588826392572	0.001209716796875	1.0272216796875
564	1.025390625	240.61322639251	0.00115234375	1.024169921875
565	1.02294921875	240.637626392448	0.00111480712890625	1.0223388671875
566	1.0205078125	240.662026392387	0.0010675048828125	1.01959228515625
567	1.01806640625	240.686426392325	0.00101531982421875	1.016845703125
568	1.015625	240.710826392264	0.00098480224609375	1.0150146484375
569	1.01318359375	240.735226392202	0.00092620849609375	1.01226806640625
570	1.0107421875	240.75962639214	0.0009033203125	1.009521484375
571	1.00830078125	240.784026392079	0.00084197998046875	1.00738525390625
572	1.005859375	240.808426392017	0.00081390380859375	1.00494384765625
573	1.00341796875	240.832826391956	0.0007684326171875	1.0028076171875
574	1.0009765625	240.857226391894	0.0007275390625	0.999755859375
575	0.99853515625	240.881626391832	0.0006951904296875	0.99761962890625
576	0.99609375	240.906026391771	0.00063995361328125	0.99517822265625
577	0.99365234375	240.930426391709	0.00062255859375	0.9930419921875
578	0.9912109375	240.954826391648	0.0005657958984375	0.99029541015625
579	0.98876953125	240.979226391586	0.0005487060546875	0.9881591796875
580	0.986328125	241.003626391524	0.0004974365234375	0.9857177734375
581	0.98388671875	241.028026391463	0.00046551513671875	0.9832763671875
582	0.9814453125	241.052426391401	0.000434844970703125	0.980224609375
583	0.97900390625	241.07682639134	0.000389739990234375	0.97808837890625
584	0.9765625	241.101226391278	0.000373199462890625	0.97564697265625
585	0.97412109375	241.125626391216	0.00031646728515625	0.97320556640625
586	0.9716796875	241.150026391155	0.0003082275390625	0.9710693359375
587	0.96923828125	241.174426391093	0.000259674072265625	0.96832275390625
588	0.966796875	241.198826391032	0.000240081787109375	0.96588134765625
589	0.96435546875	241.22322639097	0.000203887939453125	0.9637451171875
590	0.9619140625	241.247626390908	0.000166229248046875	0.96099853515625
591	0.95947265625	241.272026390847	0.000152313232421875	0.9588623046875
592	0.95703125	241.296426390785	0.000104400634765625	0.9564208984375
593	0.95458984375	241.320826390723	0.00010064697265625	0.953369140625
594	0.9521484375	241.345226390662	4.7149658203125E-05	0.95123291015625
595	0.94970703125	241.3696263906	3.9093017578125E-05	0.9490966796875
596	0.947265625	241.394026390539	3.62548828125001E-06	0.94635009765625
597	0.94482421875	241.418426390477	-2.1783447265625E-05	0.943603515625
598	0.9423828125	241.442826390415	-4.0191650390625E-05	0.9417724609375
599	0.93994140625	241.467226390354	-8.416748046875E-05	0.938720703125
600	0.9375	241.491626390292	-8.3648681640625E-05	0.936279296875
601	0.93505859375	241.516026390231	-0.000132171630859375	0.933837890625
602	0.9326171875	241.540426390169	-0.000129058837890625	0.931396484375
603	0.93017578125	241.564826390107	-0.0001739501953125	0.9295654296875
604	0.927734375	241.589226390046	-0.0001873779296875	0.9271240234375
605	0.92529296875	241.613626389984	-0.000206695556640625	0.924072265625
606	0.9228515625	241.638026389923	-0.00023895263671875	0.92193603515625
607	0.92041015625	241.662426389861	-0.00024114990234375	0.92010498046875
608	0.91796875	241.686826389799	-0.00028997802734375	0.9173583984375
609	0.91552734375	241.711226389738	-0.000279510498046875	0.91461181640625
610	0.9130859375	241.735626389676	-0.00032208251953125	0.91217041015625
611	0.91064453125	241.760026389615	-0.00032281494140625	0.9100341796875
612	0.908203125	241.784426389553	-0.000351898193359375	0.90728759765625
613	0.90576171875	241.808826389491	-0.000376129150390625	0.9051513671875
614	0.9033203125	241.83322638943	-0.000378082275390625	0.90240478515625
615	0.90087890625	241.857626389368	-0.00041717529296875	0.9002685546875
616	0.8984375	241.882026389307	-0.000405364990234375	0.8978271484375
617	0.89599609375	241.906426389245	-0.000453399658203125	0.89508056640625
618	0.8935546875	241.930826389183	-0.000443359375	0.892333984375
619	0.89111328125	241.955226389122	-0.000473175048828125	0.889892578125
620	0.888671875	241.97962638906	-0.0004833984375	0.887451171875
621	0.88623046875	242.004026388999	-0.00049468994140625	0.88531494140625
622	0.8837890625	242.028426388937	-0.00052886962890625	0.88287353515625
623	0.88134765625	242.052826388875	-0.00051513671875	0.8807373046875
624	0.87890625	242.077226388814	-0.00055816650390625	0.87799072265625
625	0.87646484375	242.101626388752	-0.00053985595703125	0.87615966796875
626	0.8740234375	242.126026388691	-0.00058135986328125	0.8734130859375
627	0.87158203125	242.150426388629	-0.00058074951171875	0.87066650390625
628	0.869140625	242.174826388567	-0.00059478759765625	0.867919921875
629	0.86669921875	242.199226388506	-0.000616455078125	0.8660888671875
630	0.8642578125	242.223626388444	-0.00061065673828125	0.8636474609375
631	0.86181640625	242.248026388383	-0.0006536865234375	0.8612060546875
632	0.859375	242.272426388321	-0.00063140869140625	0.85845947265625
633	0.85693359375	242.296826388259	-0.00067108154296875	0.85601806640625
634	0.8544921875	242.321226388198	-0.000657958984375	0.85418701171875
635	0.85205078125	242.345626388136	-0.00068603515625	0.85113525390625
636	0.849609375	242.370026388075	-0.00069915771484375	0.84869384765625
637	0.84716796875	242.394426388013	-0.00069580078125	0.84625244140625
638	0.8447265625	242.418826387951	-0.00072784423828125	0.8441162109375
639	0.84228515625	242.44322638789	-0.00070831298828125	0.8416748046875
640	0.83984375	242.467626387828	-0.00075439453125	0.83892822265625
641	0.83740234375	242.492026387766	-0.0007318115234375	0.83648681640625
642	0.8349609375	242.516426387705	-0.0007611083984375	0.83404541015625
643	0.83251953125	242.540826387643	-0.00076141357421875	0.83160400390625
644	0.830078125	242.565226387582	-0.0007708740234375	0.82916259765625
645	0.82763671875	242.58962638752	-0.00079742431640625	0.82672119140625
646	0.8251953125	242.614026387458	-0.0007794189453125	0.8245849609375
647	0.82275390625	242.638426387397	-0.000819091796875	0.82244873046875
648	0.8203125	242.662826387335	-0.00079254150390625	0.81939697265625
649	0.81787109375	242.687226387274	-0.0008331298828125	0.81695556640625
650	0.8154296875	242.711626387212	-0.00082305908203125	0.814208984375
651	0.81298828125	242.73602638715	-0.0008367919921875	0.81207275390625
652	0.810546875	242.760426387089	-0.00085113525390625	0.81024169921875
653	0.80810546875	242.784826387027	-0.0008428955078125	0.8074951171875
654	0.8056640625	242.809226386966	-0.00088165283203125	0.80474853515625
655	0.80322265625	242.833626386904	-0.00085357666015625	0.80230712890625
656	0.80078125	242.858026386842	-0.00089263916015625	0.799560546875
657	0.79833984375	242.882426386781	-0.0008709716796875	0.79742431640625
658	0.7958984375	242.906826386719	-0.00089996337890625	0.79498291015625
659	0.79345703125	242.931226386658	-0.00090545654296875	0.79254150390625
660	0.791015625	242.955626386596	-0.00090179443359375	0.79010009765625
661	0.78857421875	242.980026386534	-0.00092864990234375	0.7879638671875
662	0.7861328125	243.004426386473	-0.00090606689453125	0.78521728515625
663	0.78369140625	243.028826386411	-0.00095062255859375	0.78277587890625
664	0.78125	243.05322638635	-0.000921630859375	0.78033447265625
665	0.77880859375	243.077626386288	-0.00095184326171875	0.77850341796875
666	0.7763671875	243.102026386226	-0.000943603515625	0.77545166015625
667	0.77392578125	243.126426386165	-0.00095550537109375	0.7733154296875
668	0.771484375	243.150826386103	-0.0009765625	0.77056884765625
669	0.76904296875	243.175226386042	-0.00095703125	0.7684326171875
670	0.7666015625	243.19962638598	-0.00099334716796875	0.7659912109375
671	0.76416015625	243.224026385918	-0.00096282958984375	0.76324462890625
672	0.76171875	243.248426385857	-0.0010052490234375	0.76141357421875
673	0.75927734375	243.272826385795	-0.00098602294921875	0.7586669921875
674	0.7568359375	243.297226385734	-0.00100189208984375	0.75592041015625
675	0.75439453125	243.321626385672	-0.00100982666015625	0.75408935546875
676	0.751953125	243.34602638561	-0.0010028076171875	0.7513427734375
677	0.74951171875	243.370426385549	-0.00103729248046875	0.749481201171875
678	0.7470703125	243.394826385487	-0.00100677490234375	0.746978759765625
679	0.74462890625	243.419226385426	-0.00104522705078125	0.74456787109375
680	0.7421875	243.443626385364	-0.00101715087890625	0.742095947265625
681	0.73974609375	243.468026385302	-0.0010479736328125	0.739654541015625
682	0.7373046875	243.492426385241	-0.00104705810546875	0.73724365234375
683	0.73486328125	243.516826385179	-0.00104461669921875	0.73480224609375
684	0.732421875	243.541226385118	-0.001068115234375	0.732391357421875
685	0.72998046875	243.565626385056	-0.00104461669921875	0.7298583984375
686	0.7275390625	243.590026384994	-0.0010882568359375	0.7275390625
687	0.72509765625	243.614426384933	-0.00105438232421875	0.725006103515625
688	0.72265625	243.638826384871	-0.00108612060546875	0.72259521484375
689	0.72021484375	243.663226384809	-0.0010723876953125	0.720184326171875
690	0.7177734375	243.687626384748	-0.00108612060546875	0.717742919921875
691	0.71533203125	243.712026384686	-0.001102294921875	0.71527099609375
692	0.712890625	243.736426384625	-0.00108367919921875	0.712799072265625
693	0.71044921875	243.760826384563	-0.00111785888671875	0.710540771484375
694	0.7080078125	243.785226384501	-0.00108551025390625	0.707977294921875
695	0.70556640625	243.80962638444	-0.00112884521484375	0.70556640625
696	0.703125	243.834026384378	-0.0011041259765625	0.703125
697	0.70068359375	243.858426384317	-0.00112274169921875	0.7005615234375
698	0.6982421875	243.882826384255	-0.00112548828125	0.6982421875
699	0.69580078125	243.907226384193	-0.00112060546875	0.695831298828125
700	0.693359375	243.931626384132	-0.001151123046875	0.69342041015625
701	0.69091796875	243.95602638407	-0.0011199951171875	0.69091796875
702	0.6884765625	243.980426384009	-0.00115875244140625	0.6885986328125
703	0.68603515625	244.004826383947	-0.00112640380859375	0.68603515625
704	0.68359375	244.029226383885	-0.00115997314453125	0.683563232421875
705	0.68115234375	244.053626383824	-0.00115234375	0.68121337890625
706	0.6787109375	244.078026383762	-0.0011529541015625	0.678680419921875
707	0.67626953125	244.102426383701	-0.00117156982421875	0.676300048828125
708	0.673828125	244.126826383639	-0.00115020751953125	0.673797607421875
709	0.67138671875	244.151226383577	-0.00119171142578125	0.671478271484375
710	0.6689453125	244.175626383516	-0.00115509033203125	0.668914794921875
711	0.66650390625	244.200026383454	-0.00118927001953125	0.66656494140625
712	0.6640625	244.224426383393	-0.00116912841796875	0.6640625
713	0.66162109375	244.248826383331	-0.0011871337890625	0.661712646484375
714	0.6591796875	244.273226383269	-0.001197509765625	0.659271240234375
715	0.65673828125	244.297626383208	-0.00118133544921875	0.656707763671875
716	0.654296875	244.322026383146	-0.00121246337890625	0.65435791015625
717	0.65185546875	244.346426383085	-0.00118011474609375	0.651885986328125
718	0.6494140625	244.370826383023	-0.00122406005859375	0.649505615234375
719	0.64697265625	244.395226382961	-0.0011932373046875	0.64697265625
720	0.64453125	244.4196263829	-0.0012158203125	0.64459228515625
721	0.64208984375	244.444026382838	-0.00121246337890625	0.64215087890625
722	0.6396484375	244.468426382777	-0.0012115478515625	0.639678955078125
723	0.63720703125	244.492826382715	-0.00123809814453125	0.637298583984375
724	0.634765625	244.517226382653	-0.00120819091796875	0.63482666015625
725	0.63232421875	244.541626382592	-0.0012457275390625	0.63250732421875
726	0.6298828125	244.56602638253	-0.0012103271484375	0.62994384765625
727	0.62744140625	244.590426382469	-0.00124725341796875	0.62750244140625
728	0.625	244.614826382407	-0.00123260498046875	0.62506103515625
729	0.62255859375	244.639226382345	-0.00123779296875	0.62261962890625
730	0.6201171875	244.663626382284	-0.00125091552734375	0.620208740234375
731	0.61767578125	244.688026382222	-0.00123199462890625	0.617706298828125
732	0.615234375	244.712426382161	-0.00127105712890625	0.615386962890625
733	0.61279296875	244.736826382099	-0.00123321533203125	0.612884521484375
734	0.6103515625	244.761226382037	-0.00126922607421875	0.61041259765625
735	0.60791015625	244.785626381976	-0.00124237060546875	0.6080322265625
736	0.60546875	244.810026381914	-0.0012646484375	0.6055908203125
737	0.60302734375	244.834426381852	-0.00126861572265625	0.603118896484375
738	0.6005859375	244.858826381791	-0.0012554931640625	0.600677490234375
739	0.59814453125	244.883226381729	-0.0012823486328125	0.598297119140625
740	0.595703125	244.907626381668	-0.00125030517578125	0.595794677734375
741	0.59326171875	244.932026381606	-0.00129425048828125	0.593414306640625
742	0.5908203125	244.956426381544	-0.00125885009765625	0.590972900390625
743	0.58837890625	244.980826381483	-0.00128387451171875	0.588470458984375
744	0.5859375	245.005226381421	-0.0012744140625	0.5860595703125
745	0.58349609375	245.02962638136	-0.00127777099609375	0.5836181640625
746	0.5810546875	245.054026381298	-0.001298828125	0.5811767578125
747	0.57861328125	245.078426381236	-0.00127044677734375	0.5787353515625
748	0.576171875	245.102826381175	-0.00130645751953125	0.57635498046875
749	0.57373046875	245.127226381113	-0.00126922607421875	0.573822021484375
750	0.5712890625	245.151626381052	-0.00130828857421875	0.571380615234375
751	0.56884765625	245.17602638099	-0.0012872314453125	0.5689697265625
752	0.56640625	245.200426380928	-0.00129638671875	0.56646728515625
753	0.56396484375	245.224826380867	-0.00130401611328125	0.564117431640625
754	0.5615234375	245.249226380805	-0.0012890625	0.56158447265625
755	0.55908203125	245.273626380744	-0.001324462890625	0.559234619140625
756	0.556640625	245.298026380682	-0.0012860107421875	0.55670166015625
757	0.55419921875	245.32242638062	-0.00132293701171875	0.5543212890625
758	0.5517578125	245.346826380559	-0.00129150390625	0.551910400390625
759	0.54931640625	245.371226380497	-0.001318359375	0.549468994140625
760	0.546875	245.395626380436	-0.00131591796875	0.546966552734375
761	0.54443359375	245.420026380374	-0.00130706787109375	0.544525146484375
762	0.5419921875	245.444426380312	-0.0013299560546875	0.5421142578125
763	0.53955078125	245.468826380251	-0.001300048828125	0.53973388671875
764	0.537109375	245.493226380189	-0.00134307861328125	0.5372314453125
765	0.53466796875	245.517626380128	-0.0013043212890625	0.534820556640625
766	0.5322265625	245.542026380066	-0.0013330078125	0.532318115234375
767	0.52978515625	245.566426380004	-0.001317138671875	0.5299072265625
768	0.52734375	245.590826379943	-0.00132598876953125	0.5274658203125
769	0.52490234375	245.615226379881	-0.001341552734375	0.525054931640625
770	0.5224609375	245.63962637982	-0.00131622314453125	0.52252197265625
771	0.52001953125	245.664026379758	-0.00135040283203125	0.52020263671875
772	0.517578125	245.688426379696	-0.001312255859375	0.51763916015625
773	0.51513671875	245.712826379635	-0.00135406494140625	0.515289306640625
774	0.5126953125	245.737226379573	-0.0013262939453125	0.512847900390625
775	0.51025390625	245.761626379512	-0.00134033203125	0.510345458984375
776	0.5078125	245.78602637945	-0.0013421630859375	0.507965087890625
777	0.50537109375	245.810426379388	-0.001331787109375	0.5054931640625
778	0.5029296875	245.834826379327	-0.0013629150390625	0.503082275390625
779	0.50048828125	245.859226379265	-0.00132598876953125	0.500579833984375
780	0.498046875	245.883626379204	-0.001363525390625	0.498199462890625
781	0.49560546875	245.908026379142	-0.0013275146484375	0.4957275390625
782	0.4931640625	245.93242637908	-0.001358642578125	0.4932861328125
783	0.49072265625	245.956826379019	-0.00134979248046875	0.4908447265625
784	0.48828125	245.981226378957	-0.00134552001953125	0.4884033203125
785	0.48583984375	246.005626378895	-0.001363525390625	0.486053466796875
786	0.4833984375	246.030026378834	-0.001336669921875	0.483551025390625
787	0.48095703125	246.054426378772	-0.00137786865234375	0.481170654296875
788	0.478515625	246.078826378711	-0.0013372802734375	0.478668212890625
789	0.47607421875	246.103226378649	-0.0013690185546875	0.4761962890625
790	0.4736328125	246.127626378587	-0.00134674072265625	0.473785400390625
791	0.47119140625	246.152026378526	-0.00136077880859375	0.4713134765625
792	0.46875	246.176426378464	-0.001370849609375	0.46893310546875
793	0.46630859375	246.200826378403	-0.00134918212890625	0.4664306640625
794	0.4638671875	246.225226378341	-0.0013800048828125	0.46405029296875
795	0.46142578125	246.249626378279	-0.00134246826171875	0.461517333984375
796	0.458984375	246.274026378218	-0.001385498046875	0.459136962890625
797	0.45654296875	246.298426378156	-0.0013525390625	0.4566650390625
798	0.4541015625	246.322826378095	-0.00137115478515625	0.454254150390625
799	0.45166015625	246.347226378033	-0.00136688232421875	0.4517822265625
800	0.44921875	246.371626377971	-0.001361083984375	0.449310302734375
801	0.44677734375	246.39602637791	-0.00138763427734375	0.446929931640625
802	0.4443359375	246.420426377848	-0.00135284423828125	0.44451904296875
803	0.44189453125	246.444826377787	-0.00139007568359375	0.442169189453125
804	0.439453125	246.469226377725	-0.00135101318359375	0.439605712890625
805	0.43701171875	246.493626377663	-0.001385498046875	0.437225341796875
806	0.4345703125	246.518026377602	-0.00137054443359375	0.43475341796875
807	0.43212890625	246.54242637754	-0.00137115478515625	0.43231201171875
808	0.4296875	246.566826377479	-0.00138427734375	0.42987060546875
809	0.42724609375	246.591226377417	-0.001361083984375	0.427398681640625
810	0.4248046875	246.615626377355	-0.001400146484375	0.425048828125
811	0.42236328125	246.640026377294	-0.00135894775390625	0.422515869140625
812	0.419921875	246.664426377232	-0.00139312744140625	0.42010498046875
813	0.41748046875	246.688826377171	-0.00136474609375	0.417633056640625
814	0.4150390625	246.713226377109	-0.00138427734375	0.41522216796875
815	0.41259765625	246.737626377047	-0.0013885498046875	0.412841796875
816	0.41015625	246.762026376986	-0.00137115478515625	0.410369873046875
817	0.40771484375	246.786426376924	-0.00139862060546875	0.40789794921875
818	0.4052734375	246.810826376863	-0.00136260986328125	0.405426025390625
819	0.40283203125	246.835226376801	-0.00140625	0.40301513671875
820	0.400390625	246.859626376739	-0.0013690185546875	0.400543212890625
821	0.39794921875	246.884026376678	-0.0013916015625	0.3980712890625
822	0.3955078125	246.908426376616	-0.0013818359375	0.395721435546875
823	0.39306640625	246.932826376555	-0.0013812255859375	0.39324951171875
824	0.390625	246.957226376493	-0.00140380859375	0.39080810546875
825	0.38818359375	246.981626376431	-0.00137176513671875	0.3883056640625
826	0.3857421875	247.00602637637	-0.0014080810546875	0.385955810546875
827	0.38330078125	247.030426376308	-0.0013677978515625	0.383453369140625
828	0.380859375	247.054826376247	-0.00140533447265625	0.38104248046875
829	0.37841796875	247.079226376185	-0.00138427734375	0.378631591796875
830	0.3759765625	247.103626376123	-0.00139007568359375	0.376129150390625
831	0.37353515625	247.128026376062	-0.0013983154296875	0.37371826171875
832	0.37109375	247.152426376	-0.00137939453125	0.371307373046875
833	0.36865234375	247.176826375939	-0.0014154052734375	0.368865966796875
834	0.3662109375	247.201226375877	-0.00137451171875	0.366363525390625
835	0.36376953125	247.225626375815	-0.00141021728515625	0.363983154296875
836	0.361328125	247.250026375754	-0.00137786865234375	0.361480712890625
837	0.35888671875	247.274426375692	-0.00140106201171875	0.359130859375
838	0.3564453125	247.29882637563	-0.00140045166015625	0.35662841796875
839	0.35400390625	247.323226375569	-0.0013873291015625	0.354156494140625
840	0.3515625	247.347626375507	-0.00141143798828125	0.35174560546875
841	0.34912109375	247.372026375446	-0.0013775634765625	0.34930419921875
842	0.3466796875	247.396426375384	-0.0014202880859375	0.346893310546875
843	0.34423828125	247.420826375322	-0.00138031005859375	0.3443603515625
844	0.341796875	247.445226375261	-0.00140625	0.341949462890625
845	0.33935546875	247.469626375199	-0.00139190673828125	0.339569091796875
846	0.3369140625	247.494026375138	-0.001395263671875	0.3370361328125
847	0.33447265625	247.518426375076	-0.00141326904296875	0.33465576171875
848	0.33203125	247.542826375014	-0.00138336181640625	0.33221435546875
849	0.32958984375	247.567226374953	-0.00141754150390625	0.329833984375
850	0.3271484375	247.591626374891	-0.001376953125	0.3272705078125
851	0.32470703125	247.61602637483	-0.00141632080078125	0.324859619140625
852	0.322265625	247.640426374768	-0.00139068603515625	0.322418212890625
853	0.31982421875	247.664826374706	-0.00139984130859375	0.320068359375
854	0.3173828125	247.689226374645	-0.00140411376953125	0.317596435546875
855	0.31494140625	247.713626374583	-0.00138824462890625	0.31512451171875
856	0.3125	247.738026374522	-0.0014215087890625	0.31268310546875
857	0.31005859375	247.76242637446	-0.00138092041015625	0.3101806640625
858	0.3076171875	247.786826374398	-0.001417236328125	0.30780029296875
859	0.30517578125	247.811226374337	-0.0013824462890625	0.305267333984375
860	0.302734375	247.835626374275	-0.00140838623046875	0.302947998046875
861	0.30029296875	247.860026374214	-0.00140411376953125	0.30047607421875
862	0.2978515625	247.884426374152	-0.00139373779296875	0.298004150390625
863	0.29541015625	247.90882637409	-0.00141510009765625	0.295654296875
864	0.29296875	247.933226374029	-0.00138275146484375	0.293121337890625
865	0.29052734375	247.957626373967	-0.0014251708984375	0.29071044921875
866	0.2880859375	247.982026373906	-0.00138427734375	0.28826904296875
867	0.28564453125	248.006426373844	-0.0014117431640625	0.285797119140625
868	0.283203125	248.030826373782	-0.0013946533203125	0.28338623046875
869	0.28076171875	248.055226373721	-0.00140106201171875	0.28094482421875
870	0.2783203125	248.079626373659	-0.00141632080078125	0.278564453125
871	0.27587890625	248.104026373598	-0.00138824462890625	0.2760009765625
872	0.2734375	248.128426373536	-0.001422119140625	0.273651123046875
873	0.27099609375	248.152826373474	-0.0013818359375	0.27117919921875
874	0.2685546875	248.177226373413	-0.0014215087890625	0.268707275390625
875	0.26611328125	248.201626373351	-0.00139434814453125	0.266265869140625
876	0.263671875	248.22602637329	-0.0014056396484375	0.2637939453125
877	0.26123046875	248.250426373228	-0.00140777587890625	0.2613525390625
878	0.2587890625	248.274826373166	-0.0013934326171875	0.258941650390625
879	0.25634765625	248.299226373105	-0.00142547607421875	0.256591796875
880	0.25390625	248.323626373043	-0.001385498046875	0.253997802734375
881	0.25146484375	248.348026372982	-0.0014215087890625	0.251708984375
882	0.2490234375	248.37242637292	-0.00138519287109375	0.24920654296875
883	0.24658203125	248.396826372858	-0.00141265869140625	0.24676513671875
884	0.244140625	248.421226372797	-0.00140655517578125	0.2442626953125
885	0.24169921875	248.445626372735	-0.0013970947265625	0.241851806640625
886	0.2392578125	248.470026372673	-0.00141754150390625	0.23944091796875
887	0.23681640625	248.494426372612	-0.00138641357421875	0.23699951171875
888	0.234375	248.51882637255	-0.00142852783203125	0.234588623046875
889	0.23193359375	248.543226372489	-0.00138641357421875	0.232147216796875
890	0.2294921875	248.567626372427	-0.00141448974609375	0.229583740234375
891	0.22705078125	248.592026372365	-0.001396484375	0.22723388671875
892	0.224609375	248.616426372304	-0.00140350341796875	0.22479248046875
893	0.22216796875	248.640826372242	-0.00141815185546875	0.22235107421875
894	0.2197265625	248.665226372181	-0.0013909912109375	0.219940185546875
895	0.21728515625	248.689626372119	-0.0014239501953125	0.217529296875
896	0.21484375	248.714026372057	-0.0013836669921875	0.21502685546875
897	0.21240234375	248.738426371996	-0.0014239501953125	0.212615966796875
898	0.2099609375	248.762826371934	-0.0013958740234375	0.21014404296875
899	0.20751953125	248.787226371873	-0.00140716552734375	0.207672119140625
900	0.205078125	248.811626371811	-0.0014093017578125	0.205291748046875
901	0.20263671875	248.836026371749	-0.001395263671875	0.20281982421875
902	0.2001953125	248.860426371688	-0.001427001953125	0.200439453125
903	0.19775390625	248.884826371626	-0.00138702392578125	0.197967529296875
904	0.1953125	248.909226371565	-0.00142333984375	0.195556640625
905	0.19287109375	248.933626371503	-0.00138702392578125	0.193084716796875
906	0.1904296875	248.958026371441	-0.0014141845703125	0.19061279296875
907	0.18798828125	248.98242637138	-0.0014080810546875	0.188140869140625
908	0.185546875	249.006826371318	-0.00139862060546875	0.185760498046875
909	0.18310546875	249.031226371257	-0.0014190673828125	0.183319091796875
910	0.1806640625	249.055626371195	-0.0013873291015625	0.180816650390625
911	0.17822265625	249.080026371133	-0.00142913818359375	0.178497314453125
912	0.17578125	249.104426371072	-0.00138763427734375	0.175994873046875
913	0.17333984375	249.12882637101	-0.0014154052734375	0.173492431640625
914	0.1708984375	249.153226370949	-0.001397705078125	0.171173095703125
915	0.16845703125	249.177626370887	-0.0014044189453125	0.168701171875
916	0.166015625	249.202026370825	-0.00141937255859375	0.166290283203125
917	0.16357421875	249.226426370764	-0.00139129638671875	0.16375732421875
918	0.1611328125	249.250826370702	-0.001424560546875	0.161376953125
919	0.15869140625	249.275226370641	-0.0013836669921875	0.158843994140625
920	0.15625	249.299626370579	-0.00142303466796875	0.15643310546875
921	0.15380859375	249.324026370517	-0.00139556884765625	0.154022216796875
922	0.1513671875	249.348426370456	-0.00140594482421875	0.151611328125
923	0.14892578125	249.372826370394	-0.00140838623046875	0.14910888671875
924	0.146484375	249.397226370333	-0.0013934326171875	0.14666748046875
925	0.14404296875	249.421626370271	-0.00142608642578125	0.144287109375
926	0.1416015625	249.446026370209	-0.00138580322265625	0.141815185546875
927	0.13916015625	249.470426370148	-0.00142181396484375	0.139434814453125
928	0.13671875	249.494826370086	-0.00138671875	0.13702392578125
929	0.13427734375	249.519226370025	-0.0014129638671875	0.134490966796875
930	0.1318359375	249.543626369963	-0.0014080810546875	0.132080078125
931	0.12939453125	249.568026369901	-0.00139801025390625	0.129608154296875
932	0.126953125	249.59242636984	-0.001419677734375	0.127227783203125
933	0.12451171875	249.616826369778	-0.0013873291015625	0.12469482421875
934	0.1220703125	249.641226369716	-0.0014300537109375	0.122344970703125
935	0.11962890625	249.665626369655	-0.00138946533203125	0.11981201171875
936	0.1171875	249.690026369593	-0.0014166259765625	0.117401123046875
937	0.11474609375	249.714426369532	-0.00140106201171875	0.114959716796875
938	0.1123046875	249.73882636947	-0.00140625	0.11248779296875
939	0.10986328125	249.763226369408	-0.00142333984375	0.110076904296875
940	0.107421875	249.787626369347	-0.0013946533203125	0.107666015625
941	0.10498046875	249.812026369285	-0.0014288330078125	0.10528564453125
942	0.1025390625	249.836426369224	-0.0013885498046875	0.102813720703125
943	0.10009765625	249.860826369162	-0.00142852783203125	0.100372314453125
944	0.09765625	249.8852263691	-0.00140289306640625	0.097869873046875
945	0.09521484375	249.909626369039	-0.00141204833984375	0.095458984375
946	0.0927734375	249.934026368977	-0.00141693115234375	0.093017578125
947	0.09033203125	249.958426368916	-0.0014007568359375	0.09051513671875
948	0.087890625	249.982826368854	-0.00143463134765625	0.088165283203125
949	0.08544921875	250.007226368792	-0.00139404296875	0.085693359375
950	0.0830078125	250.031626368731	-0.0014300537109375	0.083251953125
951	0.08056640625	250.056026368669	-0.00139617919921875	0.080810546875
952	0.078125	250.080426368608	-0.00142120361328125	0.078369140625
953	0.07568359375	250.104826368546	-0.00141845703125	0.075927734375
954	0.0732421875	250.129226368484	-0.00140625	0.073486328125
955	0.07080078125	250.153626368423	-0.00142974853515625	0.07110595703125
956	0.068359375	250.178026368361	-0.0013958740234375	0.068572998046875
957	0.06591796875	250.2024263683	-0.00143890380859375	0.066192626953125
958	0.0634765625	250.226826368238	-0.00139862060546875	0.063720703125
959	0.06103515625	250.251226368176	-0.001424560546875	0.061279296875
960	0.05859375	250.275626368115	-0.00141021728515625	0.058837890625
961	0.05615234375	250.300026368053	-0.00141326904296875	0.056365966796875
962	0.0537109375	250.324426367992	-0.001431884765625	0.05401611328125
963	0.05126953125	250.34882636793	-0.00140167236328125	0.051483154296875
964	0.048828125	250.373226367868	-0.00143646240234375	0.0490509033203125
965	0.04638671875	250.397626367807	-0.00139556884765625	0.0465545654296875
966	0.0439453125	250.422026367745	-0.0014349365234375	0.044122314453125
967	0.04150390625	250.446426367684	-0.0014105224609375	0.0416717529296875
968	0.0390625	250.470826367622	-0.00141876220703125	0.0392120361328125
969	0.03662109375	250.49522636756	-0.001424560546875	0.0368011474609375
970	0.0341796875	250.519626367499	-0.00140716552734375	0.0343231201171875
971	0.03173828125	250.544026367437	-0.00144195556640625	0.0319580078125
972	0.029296875	250.568426367376	-0.00140106201171875	0.0294464111328125
973	0.02685546875	250.592826367314	-0.001436767578125	0.0270660400390625
974	0.0244140625	250.617226367252	-0.00140350341796875	0.024578857421875
975	0.02197265625	250.641626367191	-0.00142791748046875	0.02215576171875
976	0.01953125	250.666026367129	-0.0014263916015625	0.0196929931640625
977	0.01708984375	250.690426367068	-0.00141265869140625	0.017254638671875
978	0.0146484375	250.714826367006	-0.001436767578125	0.014849853515625
979	0.01220703125	250.739226366944	-0.001402587890625	0.0123870849609375
980	0.009765625	250.763626366883	-0.00144561767578125	0.0099609375
981	0.00732421875	250.788026366821	-0.00140594482421875	0.0074920654296875
982	0.0048828125	250.812426366759	-0.00143096923828125	0.0050323486328125
983	0.00244140625	250.836826366698	-0.00141754150390625	0.00261535644531249
984	0	250.861226366636	-0.001419677734375	0.000164794921875003
985	0.00244140625	250.885626366575	-0.00143768310546875	0.002642822265625
986	0.0048828125	250.910026366513	-0.00140533447265625	0.00502624511718749
987	0.00732421875	250.934426366451	-0.0014398193359375	0.00755920410156249
988	0.009765625	250.95882636639	-0.00139801025390625	0.00992736816406251
989	0.01220703125	250.983226366328	-0.0014349365234375	0.01239013671875
990	0.0146484375	251.007626366267	-0.0014117431640625	0.0147979736328125
991	0.01708984375	251.032026366205	-0.0014166259765625	0.01724853515625
992	0.01953125	251.056426366143	-0.00142364501953125	0.019720458984375
993	0.02197265625	251.080826366082	-0.0014031982421875	0.022137451171875
