Index	Potential applied (V)	Time (s)	WE(1).Current (A)	WE(1).Potential (V)
1	0.00244140625	6.61594398329635	-0.00144927978515625	0.00263061523437499
2	0.0048828125	6.64034398323474	-0.001436767578125	0.0050506591796875
3	0.00732421875	6.66474398317314	-0.001431884765625	0.007476806640625
4	0.009765625	6.68914398311153	-0.00144775390625	0.00997314453125001
5	0.01220703125	6.71354398304993	-0.0014190673828125	0.0123687744140625
6	0.0146484375	6.73794398298833	-0.0014593505859375	0.0148895263671875
7	0.01708984375	6.76234398292672	-0.001416015625	0.0172393798828125
8	0.01953125	6.78674398286512	-0.00144683837890625	0.019671630859375
9	0.02197265625	6.81114398280351	-0.0014215087890625	0.0221405029296875
10	0.0244140625	6.83554398274191	-0.0014349365234375	0.024566650390625
11	0.02685546875	6.85994398268031	-0.00144317626953125	0.0270233154296875
12	0.029296875	6.8843439826187	-0.001419677734375	0.0294525146484375
13	0.03173828125	6.9087439825571	-0.001448974609375	0.03193359375
14	0.0341796875	6.93314398249549	-0.00140899658203125	0.0343231201171875
15	0.03662109375	6.95754398243389	-0.00145111083984375	0.036822509765625
16	0.0390625	6.98194398237229	-0.00141571044921875	0.0392059326171875
17	0.04150390625	7.00634398231068	-0.00143280029296875	0.0416290283203125
18	0.0439453125	7.03074398224908	-0.0014276123046875	0.0440948486328125
19	0.04638671875	7.05514398218747	-0.00141998291015625	0.04654541015625
20	0.048828125	7.07954398212587	-0.0014459228515625	0.0490020751953125
21	0.05126953125	7.10394398206427	-0.00140838623046875	0.051513671875
22	0.0537109375	7.12834398200266	-0.0014447021484375	0.0540771484375
23	0.05615234375	7.15274398194106	-0.00140472412109375	0.056365966796875
24	0.05859375	7.17714398187945	-0.001436767578125	0.05877685546875
25	0.06103515625	7.20154398181785	-0.001422119140625	0.061279296875
26	0.0634765625	7.22594398175625	-0.00141937255859375	0.063720703125
27	0.06591796875	7.25034398169464	-0.0014337158203125	0.066131591796875
28	0.068359375	7.27474398163304	-0.00140716552734375	0.068511962890625
29	0.07080078125	7.29914398157143	-0.001446533203125	0.071075439453125
30	0.0732421875	7.32354398150983	-0.0014031982421875	0.07342529296875
31	0.07568359375	7.34794398144822	-0.001435546875	0.075927734375
32	0.078125	7.37234398138662	-0.00140899658203125	0.078369140625
33	0.08056640625	7.39674398132502	-0.0014239501953125	0.08074951171875
34	0.0830078125	7.42114398126341	-0.00143035888671875	0.083251953125
35	0.08544921875	7.44554398120181	-0.0014093017578125	0.08563232421875
36	0.087890625	7.4699439811402	-0.00143798828125	0.088104248046875
37	0.09033203125	7.4943439810786	-0.00139923095703125	0.090576171875
38	0.0927734375	7.518743981017	-0.001441650390625	0.093048095703125
39	0.09521484375	7.54314398095539	-0.0014056396484375	0.09539794921875
40	0.09765625	7.56754398089379	-0.00142486572265625	0.09783935546875
41	0.10009765625	7.59194398083218	-0.0014178466796875	0.100341796875
42	0.1025390625	7.61634398077058	-0.001412353515625	0.102752685546875
43	0.10498046875	7.64074398070898	-0.0014373779296875	0.105194091796875
44	0.107421875	7.66514398064737	-0.00140106201171875	0.107666015625
45	0.10986328125	7.68954398058577	-0.0014373779296875	0.110198974609375
46	0.1123046875	7.71394398052416	-0.001396484375	0.11248779296875
47	0.11474609375	7.73834398046256	-0.0014306640625	0.114959716796875
48	0.1171875	7.76274398040096	-0.00141326904296875	0.11737060546875
49	0.11962890625	7.78714398033935	-0.00141326904296875	0.119873046875
50	0.1220703125	7.81154398027775	-0.00142486572265625	0.12237548828125
51	0.12451171875	7.83594398021614	-0.0014007568359375	0.124755859375
52	0.126953125	7.86034398015454	-0.00143890380859375	0.127227783203125
53	0.12939453125	7.88474398009294	-0.0013958740234375	0.12957763671875
54	0.1318359375	7.90914398003133	-0.00142913818359375	0.132049560546875
55	0.13427734375	7.93354397996973	-0.00140045166015625	0.13446044921875
56	0.13671875	7.95794397990812	-0.00141845703125	0.13690185546875
57	0.13916015625	7.98234397984652	-0.00142242431640625	0.13934326171875
58	0.1416015625	8.00674397978491	-0.00140350341796875	0.14178466796875
59	0.14404296875	8.03114397972331	-0.00143096923828125	0.14434814453125
60	0.146484375	8.05554397966171	-0.00139373779296875	0.146728515625
61	0.14892578125	8.0799439796001	-0.001436767578125	0.149200439453125
62	0.1513671875	8.1043439795385	-0.00139892578125	0.15155029296875
63	0.15380859375	8.12874397947689	-0.00142059326171875	0.15399169921875
64	0.15625	8.15314397941529	-0.00141143798828125	0.156463623046875
65	0.15869140625	8.17754397935369	-0.00140899658203125	0.15887451171875
66	0.1611328125	8.20194397929208	-0.00143157958984375	0.161346435546875
67	0.16357421875	8.22634397923048	-0.00139739990234375	0.16375732421875
68	0.166015625	8.25074397916887	-0.0014337158203125	0.166290283203125
69	0.16845703125	8.27514397910727	-0.00139251708984375	0.168701171875
70	0.1708984375	8.29954397904567	-0.00142852783203125	0.171112060546875
71	0.17333984375	8.32394397898406	-0.0014093017578125	0.173583984375
72	0.17578125	8.34834397892246	-0.0014117431640625	0.175994873046875
73	0.17822265625	8.37274397886085	-0.0014215087890625	0.178466796875
74	0.1806640625	8.39714397879925	-0.00139923095703125	0.180877685546875
75	0.18310546875	8.42154397873765	-0.0014361572265625	0.183349609375
76	0.185546875	8.44594397867604	-0.00139373779296875	0.185821533203125
77	0.18798828125	8.47034397861444	-0.0014276123046875	0.188201904296875
78	0.1904296875	8.49474397855283	-0.00139739990234375	0.190582275390625
79	0.19287109375	8.51914397849123	-0.001417236328125	0.19305419921875
80	0.1953125	8.54354397842962	-0.0014190673828125	0.1954345703125
81	0.19775390625	8.56794397836802	-0.00140167236328125	0.1978759765625
82	0.2001953125	8.59234397830642	-0.00142730712890625	0.200439453125
83	0.20263671875	8.61674397824481	-0.0013909912109375	0.202789306640625
84	0.205078125	8.64114397818321	-0.0014337158203125	0.20526123046875
85	0.20751953125	8.6655439781216	-0.00139495849609375	0.20770263671875
86	0.2099609375	8.68994397806	-0.00141754150390625	0.21014404296875
87	0.21240234375	8.7143439779984	-0.00140594482421875	0.21258544921875
88	0.21484375	8.73874397793679	-0.001405029296875	0.2149658203125
89	0.21728515625	8.76314397787519	-0.00142578125	0.21746826171875
90	0.2197265625	8.78754397781358	-0.0013922119140625	0.21990966796875
91	0.22216796875	8.81194397775198	-0.0014276123046875	0.222381591796875
92	0.224609375	8.83634397769038	-0.0013861083984375	0.22479248046875
93	0.22705078125	8.86074397762877	-0.0014227294921875	0.227203369140625
94	0.2294921875	8.88514397756717	-0.00140106201171875	0.229644775390625
95	0.23193359375	8.90954397750556	-0.001405029296875	0.232086181640625
96	0.234375	8.93394397744396	-0.00141326904296875	0.23455810546875
97	0.23681640625	8.95834397738236	-0.0013922119140625	0.236968994140625
98	0.2392578125	8.98274397732075	-0.00142791748046875	0.239532470703125
99	0.24169921875	9.00714397725915	-0.00138519287109375	0.241912841796875
100	0.244140625	9.03154397719754	-0.001419677734375	0.244293212890625
101	0.24658203125	9.05594397713594	-0.00138763427734375	0.24676513671875
102	0.2490234375	9.08034397707434	-0.00140838623046875	0.24920654296875
103	0.25146484375	9.10474397701273	-0.0014080810546875	0.25164794921875
104	0.25390625	9.12914397695113	-0.0013922119140625	0.25408935546875
105	0.25634765625	9.15354397688952	-0.00141693115234375	0.256561279296875
106	0.2587890625	9.17794397682792	-0.00138153076171875	0.258941650390625
107	0.26123046875	9.20234397676631	-0.00142364501953125	0.261444091796875
108	0.263671875	9.22674397670471	-0.00138397216796875	0.26385498046875
109	0.26611328125	9.25114397664311	-0.00140777587890625	0.26629638671875
110	0.2685546875	9.2755439765815	-0.00139495849609375	0.268768310546875
111	0.27099609375	9.2999439765199	-0.001395263671875	0.271148681640625
112	0.2734375	9.32434397645829	-0.00141510009765625	0.273590087890625
113	0.27587890625	9.34874397639669	-0.001383056640625	0.27606201171875
114	0.2783203125	9.37314397633509	-0.0014178466796875	0.27850341796875
115	0.28076171875	9.39754397627348	-0.00137664794921875	0.28094482421875
116	0.283203125	9.42194397621188	-0.00141357421875	0.283355712890625
117	0.28564453125	9.44634397615027	-0.001390380859375	0.2857666015625
118	0.2880859375	9.47074397608867	-0.0013958740234375	0.28826904296875
119	0.29052734375	9.49514397602707	-0.00140228271484375	0.290679931640625
120	0.29296875	9.51954397596546	-0.00138275146484375	0.29315185546875
121	0.29541015625	9.54394397590386	-0.00141754150390625	0.295623779296875
122	0.2978515625	9.56834397584225	-0.00137542724609375	0.2979736328125
123	0.30029296875	9.59274397578065	-0.00141021728515625	0.30047607421875
124	0.302734375	9.61714397571905	-0.001376953125	0.3028564453125
125	0.30517578125	9.64154397565744	-0.00139984130859375	0.305328369140625
126	0.3076171875	9.66594397559584	-0.0013983154296875	0.30780029296875
127	0.31005859375	9.69034397553423	-0.00138397216796875	0.310272216796875
128	0.3125	9.71474397547263	-0.0014068603515625	0.312652587890625
129	0.31494140625	9.73914397541103	-0.00137237548828125	0.31512451171875
130	0.3173828125	9.76354397534942	-0.0014141845703125	0.317596435546875
131	0.31982421875	9.78794397528782	-0.00137420654296875	0.319976806640625
132	0.322265625	9.81234397522621	-0.0013983154296875	0.3223876953125
133	0.32470703125	9.83674397516461	-0.00138427734375	0.32489013671875
134	0.3271484375	9.861143975103	-0.00138641357421875	0.327239990234375
135	0.32958984375	9.8855439750414	-0.0014044189453125	0.329742431640625
136	0.33203125	9.9099439749798	-0.00137298583984375	0.332244873046875
137	0.33447265625	9.93434397491819	-0.0014068603515625	0.334716796875
138	0.3369140625	9.95874397485659	-0.001365966796875	0.337005615234375
139	0.33935546875	9.98314397479498	-0.0014031982421875	0.339508056640625
140	0.341796875	10.0075439747334	-0.0013787841796875	0.341949462890625
141	0.34423828125	10.0319439746718	-0.00138580322265625	0.344390869140625
142	0.3466796875	10.0563439746102	-0.0013909912109375	0.34686279296875
143	0.34912109375	10.0807439745486	-0.0013726806640625	0.349334716796875
144	0.3515625	10.105143974487	-0.00140655517578125	0.351776123046875
145	0.35400390625	10.1295439744254	-0.00136505126953125	0.35418701171875
146	0.3564453125	10.1539439743638	-0.001400146484375	0.35662841796875
147	0.35888671875	10.1783439743022	-0.001365966796875	0.3590087890625
148	0.361328125	10.2027439742405	-0.0013897705078125	0.361480712890625
149	0.36376953125	10.2271439741789	-0.00138671875	0.363922119140625
150	0.3662109375	10.2515439741173	-0.00137359619140625	0.366302490234375
151	0.36865234375	10.2759439740557	-0.001395263671875	0.36883544921875
152	0.37109375	10.3003439739941	-0.00136138916015625	0.37127685546875
153	0.37353515625	10.3247439739325	-0.0014031982421875	0.373687744140625
154	0.3759765625	10.3491439738709	-0.00136260986328125	0.376129150390625
155	0.37841796875	10.3735439738093	-0.001387939453125	0.378509521484375
156	0.380859375	10.3979439737477	-0.00137237548828125	0.3809814453125
157	0.38330078125	10.4223439736861	-0.001375732421875	0.38348388671875
158	0.3857421875	10.4467439736245	-0.00139251708984375	0.38592529296875
159	0.38818359375	10.4711439735629	-0.0013623046875	0.3883056640625
160	0.390625	10.4955439735013	-0.00139556884765625	0.39080810546875
161	0.39306640625	10.5199439734397	-0.0013543701171875	0.39324951171875
162	0.3955078125	10.5443439733781	-0.001392822265625	0.395660400390625
163	0.39794921875	10.5687439733165	-0.0013665771484375	0.398101806640625
164	0.400390625	10.5931439732549	-0.00137481689453125	0.400543212890625
165	0.40283203125	10.6175439731933	-0.001378173828125	0.40301513671875
166	0.4052734375	10.6419439731317	-0.00136199951171875	0.405426025390625
167	0.40771484375	10.6663439730701	-0.00139404296875	0.407958984375
168	0.41015625	10.6907439730085	-0.0013531494140625	0.41033935546875
169	0.41259765625	10.7151439729469	-0.00138885498046875	0.41278076171875
170	0.4150390625	10.7395439728853	-0.00135345458984375	0.415252685546875
171	0.41748046875	10.7639439728237	-0.00137847900390625	0.417572021484375
172	0.419921875	10.788343972762	-0.00137298583984375	0.420074462890625
173	0.42236328125	10.8127439727004	-0.00136199951171875	0.422454833984375
174	0.4248046875	10.8371439726388	-0.00138214111328125	0.42498779296875
175	0.42724609375	10.8615439725772	-0.0013494873046875	0.42742919921875
176	0.4296875	10.8859439725156	-0.001390380859375	0.429840087890625
177	0.43212890625	10.910343972454	-0.00134857177734375	0.4322509765625
178	0.4345703125	10.9347439723924	-0.00137481689453125	0.434722900390625
179	0.43701171875	10.9591439723308	-0.0013568115234375	0.43719482421875
180	0.439453125	10.9835439722692	-0.0013616943359375	0.439605712890625
181	0.44189453125	11.0079439722076	-0.001375732421875	0.44207763671875
182	0.4443359375	11.032343972146	-0.0013470458984375	0.4444580078125
183	0.44677734375	11.0567439720844	-0.0013787841796875	0.44696044921875
184	0.44921875	11.0811439720228	-0.0013372802734375	0.449310302734375
185	0.45166015625	11.1055439719612	-0.00137542724609375	0.451812744140625
186	0.4541015625	11.1299439718996	-0.00134674072265625	0.4542236328125
187	0.45654296875	11.154343971838	-0.00135650634765625	0.456634521484375
188	0.458984375	11.1787439717764	-0.001357421875	0.4591064453125
189	0.46142578125	11.2031439717148	-0.00134246826171875	0.4615478515625
190	0.4638671875	11.2275439716532	-0.00137237548828125	0.4639892578125
191	0.46630859375	11.2519439715916	-0.001331787109375	0.4664306640625
192	0.46875	11.27634397153	-0.00136627197265625	0.468902587890625
193	0.47119140625	11.3007439714684	-0.001329345703125	0.4713134765625
194	0.4736328125	11.3251439714068	-0.0013555908203125	0.473785400390625
195	0.47607421875	11.3495439713452	-0.00134765625	0.476226806640625
196	0.478515625	11.3739439712836	-0.001337890625	0.478607177734375
197	0.48095703125	11.3983439712219	-0.00135589599609375	0.48114013671875
198	0.4833984375	11.4227439711603	-0.0013238525390625	0.4835205078125
199	0.48583984375	11.4471439710987	-0.001363525390625	0.485992431640625
200	0.48828125	11.4715439710371	-0.0013214111328125	0.4884033203125
201	0.49072265625	11.4959439709755	-0.00134796142578125	0.490814208984375
202	0.4931640625	11.5203439709139	-0.0013275146484375	0.4932861328125
203	0.49560546875	11.5447439708523	-0.00133392333984375	0.49566650390625
204	0.498046875	11.5691439707907	-0.00134552001953125	0.4981689453125
205	0.50048828125	11.5935439707291	-0.00131805419921875	0.500518798828125
206	0.5029296875	11.6179439706675	-0.00134796142578125	0.503082275390625
207	0.50537109375	11.6423439706059	-0.00130706787109375	0.505462646484375
208	0.5078125	11.6667439705443	-0.00134552001953125	0.5079345703125
209	0.51025390625	11.6911439704827	-0.0013153076171875	0.510345458984375
210	0.5126953125	11.7155439704211	-0.0013262939453125	0.512786865234375
211	0.51513671875	11.7399439703595	-0.00132537841796875	0.51531982421875
212	0.517578125	11.7643439702979	-0.00131195068359375	0.5177001953125
213	0.52001953125	11.7887439702363	-0.00134033203125	0.52020263671875
214	0.5224609375	11.8131439701747	-0.0013006591796875	0.5225830078125
215	0.52490234375	11.8375439701131	-0.0013348388671875	0.5250244140625
216	0.52734375	11.8619439700515	-0.0012969970703125	0.5274658203125
217	0.52978515625	11.8863439699899	-0.0013238525390625	0.5299072265625
218	0.5322265625	11.9107439699283	-0.0013134765625	0.532318115234375
219	0.53466796875	11.9351439698667	-0.00130523681640625	0.5347900390625
220	0.537109375	11.9595439698051	-0.00132110595703125	0.537261962890625
221	0.53955078125	11.9839439697434	-0.00129058837890625	0.53961181640625
222	0.5419921875	12.0083439696818	-0.00132904052734375	0.542144775390625
223	0.54443359375	12.0327439696202	-0.00128570556640625	0.5445556640625
224	0.546875	12.0571439695586	-0.0013128662109375	0.546905517578125
225	0.54931640625	12.081543969497	-0.00129058837890625	0.549468994140625
226	0.5517578125	12.1059439694354	-0.001298828125	0.5518798828125
227	0.55419921875	12.1303439693738	-0.00130828857421875	0.5543212890625
228	0.556640625	12.1547439693122	-0.0012823486328125	0.556732177734375
229	0.55908203125	12.1791439692506	-0.00131134033203125	0.559234619140625
230	0.5615234375	12.203543969189	-0.001270751953125	0.561614990234375
231	0.56396484375	12.2279439691274	-0.0013092041015625	0.564056396484375
232	0.56640625	12.2523439690658	-0.00127685546875	0.566497802734375
233	0.56884765625	12.2767439690042	-0.00128936767578125	0.568939208984375
234	0.5712890625	12.3011439689426	-0.0012860107421875	0.571441650390625
235	0.57373046875	12.325543968881	-0.0012744140625	0.573822021484375
236	0.576171875	12.3499439688194	-0.00130096435546875	0.57635498046875
237	0.57861328125	12.3743439687578	-0.0012615966796875	0.57867431640625
238	0.5810546875	12.3987439686962	-0.001295166015625	0.58123779296875
239	0.58349609375	12.4231439686346	-0.00125579833984375	0.583526611328125
240	0.5859375	12.447543968573	-0.0012835693359375	0.585968017578125
241	0.58837890625	12.4719439685114	-0.001270751953125	0.58843994140625
242	0.5908203125	12.4963439684498	-0.00126373291015625	0.5909423828125
243	0.59326171875	12.5207439683882	-0.00127777099609375	0.5933837890625
244	0.595703125	12.5451439683266	-0.00124847412109375	0.59576416015625
245	0.59814453125	12.569543968265	-0.001285400390625	0.5982666015625
246	0.6005859375	12.5939439682033	-0.0012420654296875	0.600616455078125
247	0.60302734375	12.6183439681417	-0.00126922607421875	0.60302734375
248	0.60546875	12.6427439680801	-0.00124420166015625	0.60552978515625
249	0.60791015625	12.6671439680185	-0.0012542724609375	0.608001708984375
250	0.6103515625	12.6915439679569	-0.00126068115234375	0.610443115234375
251	0.61279296875	12.7159439678953	-0.00123565673828125	0.612884521484375
252	0.615234375	12.7403439678337	-0.00126251220703125	0.615325927734375
253	0.61767578125	12.7647439677721	-0.001221923828125	0.61767578125
254	0.6201171875	12.7891439677105	-0.00125946044921875	0.620208740234375
255	0.62255859375	12.8135439676489	-0.00122406005859375	0.622589111328125
256	0.625	12.8379439675873	-0.00123748779296875	0.62506103515625
257	0.62744140625	12.8623439675257	-0.00123138427734375	0.627532958984375
258	0.6298828125	12.8867439674641	-0.001220703125	0.629974365234375
259	0.63232421875	12.9111439674025	-0.00124359130859375	0.6324462890625
260	0.634765625	12.9355439673409	-0.001204833984375	0.634796142578125
261	0.63720703125	12.9599439672793	-0.0012371826171875	0.637298583984375
262	0.6396484375	12.9843439672177	-0.00119598388671875	0.63970947265625
263	0.64208984375	13.0087439671561	-0.0012237548828125	0.64215087890625
264	0.64453125	13.0331439670945	-0.0012078857421875	0.644622802734375
265	0.64697265625	13.0575439670329	-0.00120208740234375	0.64703369140625
266	0.6494140625	13.0819439669713	-0.00121246337890625	0.6495361328125
267	0.65185546875	13.1063439669097	-0.00118438720703125	0.65191650390625
268	0.654296875	13.1307439668481	-0.0012176513671875	0.65435791015625
269	0.65673828125	13.1551439667865	-0.00117401123046875	0.65673828125
270	0.6591796875	13.1795439667249	-0.00120086669921875	0.659149169921875
271	0.66162109375	13.2039439666632	-0.0011724853515625	0.66168212890625
272	0.6640625	13.2283439666016	-0.00118316650390625	0.664093017578125
273	0.66650390625	13.25274396654	-0.00118621826171875	0.666534423828125
274	0.6689453125	13.2771439664784	-0.001162109375	0.66900634765625
275	0.67138671875	13.3015439664168	-0.00118560791015625	0.671478271484375
276	0.673828125	13.3259439663552	-0.00114593505859375	0.673828125
277	0.67626953125	13.3503439662936	-0.00118194580078125	0.67633056640625
278	0.6787109375	13.374743966232	-0.0011444091796875	0.67864990234375
279	0.68115234375	13.3991439661704	-0.0011578369140625	0.68115234375
280	0.68359375	13.4235439661088	-0.001148681640625	0.68359375
281	0.68603515625	13.4479439660472	-0.00113922119140625	0.686065673828125
282	0.6884765625	13.4723439659856	-0.0011590576171875	0.688507080078125
283	0.69091796875	13.496743965924	-0.00112091064453125	0.69091796875
284	0.693359375	13.5211439658624	-0.0011505126953125	0.693389892578125
285	0.69580078125	13.5455439658008	-0.0011083984375	0.695770263671875
286	0.6982421875	13.5699439657392	-0.00113616943359375	0.6982421875
287	0.70068359375	13.5943439656776	-0.00111663818359375	0.70068359375
288	0.703125	13.618743965616	-0.001112060546875	0.703155517578125
289	0.70556640625	13.6431439655544	-0.0011187744140625	0.70556640625
290	0.7080078125	13.6675439654928	-0.00109161376953125	0.707916259765625
291	0.71044921875	13.6919439654312	-0.001123046875	0.71044921875
292	0.712890625	13.7163439653696	-0.00107879638671875	0.712799072265625
293	0.71533203125	13.740743965308	-0.0011053466796875	0.715240478515625
294	0.7177734375	13.7651439652464	-0.00107421875	0.71771240234375
295	0.72021484375	13.7895439651847	-0.00108642578125	0.720123291015625
296	0.72265625	13.8139439651231	-0.001085205078125	0.722686767578125
297	0.72509765625	13.8383439650615	-0.001063232421875	0.725006103515625
298	0.7275390625	13.8627439649999	-0.00108428955078125	0.7275390625
299	0.72998046875	13.8871439649383	-0.00104400634765625	0.729949951171875
300	0.732421875	13.9115439648767	-0.00107818603515625	0.73236083984375
301	0.73486328125	13.9359439648151	-0.00103851318359375	0.734771728515625
302	0.7373046875	13.9603439647535	-0.00105255126953125	0.737213134765625
303	0.73974609375	13.9847439646919	-0.001038818359375	0.739654541015625
304	0.7421875	14.0091439646303	-0.00103118896484375	0.74212646484375
305	0.74462890625	14.0335439645687	-0.00104644775390625	0.74456787109375
306	0.7470703125	14.0579439645071	-0.00100921630859375	0.746917724609375
307	0.74951171875	14.0823439644455	-0.00103729248046875	0.74951171875
308	0.751953125	14.1067439643839	-0.00099365234375	0.75103759765625
309	0.75439453125	14.1311439643223	-0.0010211181640625	0.7537841796875
310	0.7568359375	14.1555439642607	-0.0009967041015625	0.75592041015625
311	0.75927734375	14.1799439641991	-0.00099395751953125	0.7586669921875
312	0.76171875	14.2043439641375	-0.00099578857421875	0.76141357421875
313	0.76416015625	14.2287439640759	-0.000970458984375	0.76385498046875
314	0.7666015625	14.2531439640143	-0.00099761962890625	0.7659912109375
315	0.76904296875	14.2775439639527	-0.00095245361328125	0.76812744140625
316	0.771484375	14.3019439638911	-0.00097686767578125	0.77117919921875
317	0.77392578125	14.3263439638295	-0.0009423828125	0.7733154296875
318	0.7763671875	14.3507439637679	-0.0009552001953125	0.77545166015625
319	0.77880859375	14.3751439637063	-0.000948486328125	0.77789306640625
320	0.78125	14.3995439636446	-0.000927734375	0.7806396484375
321	0.78369140625	14.423943963583	-0.00094329833984375	0.782470703125
322	0.7861328125	14.4483439635214	-0.000904541015625	0.78521728515625
323	0.78857421875	14.4727439634598	-0.0009356689453125	0.78765869140625
324	0.791015625	14.4971439633982	-0.00089263916015625	0.789794921875
325	0.79345703125	14.5215439633366	-0.0009063720703125	0.79254150390625
326	0.7958984375	14.545943963275	-0.000887451171875	0.794677734375
327	0.79833984375	14.5703439632134	-0.00088104248046875	0.79742431640625
328	0.80078125	14.5947439631518	-0.00089019775390625	0.799560546875
329	0.80322265625	14.6191439630902	-0.0008538818359375	0.80230712890625
330	0.8056640625	14.6435439630286	-0.00087677001953125	0.8050537109375
331	0.80810546875	14.667943962967	-0.00083221435546875	0.80718994140625
332	0.810546875	14.6923439629054	-0.00085693359375	0.80963134765625
333	0.81298828125	14.7167439628438	-0.00082794189453125	0.81268310546875
334	0.8154296875	14.7411439627822	-0.00082489013671875	0.81451416015625
335	0.81787109375	14.7655439627206	-0.000821533203125	0.816650390625
336	0.8203125	14.789943962659	-0.0007965087890625	0.81939697265625
337	0.82275390625	14.8143439625974	-0.000816650390625	0.82244873046875
338	0.8251953125	14.8387439625358	-0.000771484375	0.823974609375
339	0.82763671875	14.8631439624742	-0.0007916259765625	0.82672119140625
340	0.830078125	14.8875439624126	-0.000753173828125	0.8294677734375
341	0.83251953125	14.911943962351	-0.000762939453125	0.831298828125
342	0.8349609375	14.9363439622894	-0.000750732421875	0.83404541015625
343	0.83740234375	14.9607439622278	-0.00072906494140625	0.83648681640625
344	0.83984375	14.9851439621661	-0.00073760986328125	0.8392333984375
345	0.84228515625	15.0095439621045	-0.0006988525390625	0.841064453125
346	0.8447265625	15.0339439620429	-0.0007232666015625	0.843505859375
347	0.84716796875	15.0583439619813	-0.0006781005859375	0.845947265625
348	0.849609375	15.0827439619197	-0.00068756103515625	0.84869384765625
349	0.85205078125	15.1071439618581	-0.0006634521484375	0.85113525390625
350	0.8544921875	15.1315439617965	-0.00065521240234375	0.85357666015625
351	0.85693359375	15.1559439617349	-0.00065704345703125	0.85601806640625
352	0.859375	15.1803439616733	-0.0006201171875	0.858154296875
353	0.86181640625	15.2047439616117	-0.00063507080078125	0.86090087890625
354	0.8642578125	15.2291439615501	-0.0005889892578125	0.86334228515625
355	0.86669921875	15.2535439614885	-0.0006072998046875	0.86639404296875
356	0.869140625	15.2779439614269	-0.0005731201171875	0.86822509765625
357	0.87158203125	15.3023439613653	-0.0005657958984375	0.87066650390625
358	0.8740234375	15.3267439613037	-0.00055572509765625	0.87310791015625
359	0.87646484375	15.3511439612421	-0.00052764892578125	0.875244140625
360	0.87890625	15.3755439611805	-0.0005389404296875	0.87799072265625
361	0.88134765625	15.3999439611189	-0.000491943359375	0.8807373046875
362	0.8837890625	15.4243439610573	-0.0005035400390625	0.8831787109375
363	0.88623046875	15.4487439609957	-0.0004620361328125	0.88531494140625
364	0.888671875	15.4731439609341	-0.000464813232421875	0.88775634765625
365	0.89111328125	15.4975439608725	-0.00044573974609375	0.89019775390625
366	0.8935546875	15.5219439608109	-0.000419708251953125	0.8929443359375
367	0.89599609375	15.5463439607493	-0.000419158935546875	0.8953857421875
368	0.8984375	15.5707439606877	-0.000376922607421875	0.89752197265625
369	0.90087890625	15.595143960626	-0.00039044189453125	0.89996337890625
370	0.9033203125	15.6195439605644	-0.0003419189453125	0.9027099609375
371	0.90576171875	15.6439439605028	-0.0003416748046875	0.9051513671875
372	0.908203125	15.6683439604412	-0.000311187744140625	0.90728759765625
373	0.91064453125	15.6927439603796	-0.000294708251953125	0.909423828125
374	0.9130859375	15.717143960318	-0.00028619384765625	0.91217041015625
375	0.91552734375	15.7415439602564	-0.00024505615234375	0.91461181640625
376	0.91796875	15.7659439601948	-0.000246795654296875	0.916748046875
377	0.92041015625	15.7903439601332	-0.000197235107421875	0.919189453125
378	0.9228515625	15.8147439600716	-0.00020172119140625	0.92254638671875
379	0.92529296875	15.83914396001	-0.00016204833984375	0.9246826171875
380	0.927734375	15.8635439599484	-0.00014508056640625	0.9271240234375
381	0.93017578125	15.8879439598868	-0.000124267578125	0.92926025390625
382	0.9326171875	15.9123439598252	-8.9813232421875E-05	0.931396484375
383	0.93505859375	15.9367439597636	-8.721923828125E-05	0.93414306640625
384	0.9375	15.961143959702	-3.6041259765625E-05	0.93658447265625
385	0.93994140625	15.9855439596404	-3.2672119140625E-05	0.93902587890625
386	0.9423828125	16.0099439595788	1.47857666015625E-05	0.941162109375
387	0.94482421875	16.0343439595172	2.4566650390625E-05	0.94390869140625
388	0.947265625	16.0587439594556	5.4351806640625E-05	0.94635009765625
389	0.94970703125	16.083143959394	8.8043212890625E-05	0.94879150390625
390	0.9521484375	16.1075439593324	0.000103485107421875	0.950927734375
391	0.95458984375	16.1319439592708	0.000150787353515625	0.9539794921875
392	0.95703125	16.1563439592092	0.000154327392578125	0.9564208984375
393	0.95947265625	16.1807439591475	0.000207977294921875	0.9588623046875
394	0.9619140625	16.2051439590859	0.000222076416015625	0.96099853515625
395	0.96435546875	16.2295439590243	0.000262420654296875	0.96343994140625
396	0.966796875	16.2539439589627	0.000289306640625	0.965576171875
397	0.96923828125	16.2783439589011	0.000312408447265625	0.96832275390625
398	0.9716796875	16.3027439588395	0.000359832763671875	0.97076416015625
399	0.97412109375	16.3271439587779	0.00037420654296875	0.97320556640625
400	0.9765625	16.3515439587163	0.00042877197265625	0.97564697265625
401	0.97900390625	16.3759439586547	0.00044140625	0.9783935546875
402	0.9814453125	16.4003439585931	0.00048919677734375	0.98052978515625
403	0.98388671875	16.4247439585315	0.000518798828125	0.9832763671875
404	0.986328125	16.4491439584699	0.00055267333984375	0.98602294921875
405	0.98876953125	16.4735439584083	0.00059600830078125	0.98785400390625
406	0.9912109375	16.4979439583467	0.0006158447265625	0.989990234375
407	0.99365234375	16.5223439582851	0.000672607421875	0.992431640625
408	0.99609375	16.5467439582235	0.00069244384765625	0.99517822265625
409	0.99853515625	16.5711439581619	0.00074798583984375	0.9979248046875
410	1.0009765625	16.5955439581003	0.00077362060546875	1.00006103515625
411	1.00341796875	16.6199439580387	0.0008154296875	1.00250244140625
412	1.005859375	16.6443439579771	0.000859375	1.0052490234375
413	1.00830078125	16.6687439579155	0.0008905029296875	1.0076904296875
414	1.0107421875	16.6931439578539	0.0009454345703125	1.009521484375
415	1.01318359375	16.7175439577923	0.000968017578125	1.0125732421875
416	1.015625	16.7419439577307	0.00102813720703125	1.01470947265625
417	1.01806640625	16.7663439576691	0.001058349609375	1.01715087890625
418	1.0205078125	16.7907439576074	0.00110931396484375	1.019287109375
419	1.02294921875	16.8151439575458	0.00115020751953125	1.02203369140625
420	1.025390625	16.8395439574842	0.00118804931640625	1.024169921875
421	1.02783203125	16.8639439574226	0.00124359130859375	1.02752685546875
422	1.0302734375	16.888343957361	0.00127593994140625	1.029052734375
423	1.03271484375	16.9127439572994	0.001337890625	1.0321044921875
424	1.03515625	16.9371439572378	0.00136810302734375	1.0345458984375
425	1.03759765625	16.9615439571762	0.00142547607421875	1.036376953125
426	1.0400390625	16.9859439571146	0.001468505859375	1.03912353515625
427	1.04248046875	17.010343957053	0.00151611328125	1.0418701171875
428	1.044921875	17.0347439569914	0.00156951904296875	1.043701171875
429	1.04736328125	17.0591439569298	0.0016070556640625	1.0467529296875
430	1.0498046875	17.0835439568682	0.00167083740234375	1.04888916015625
431	1.05224609375	17.1079439568066	0.0017083740234375	1.05133056640625
432	1.0546875	17.132343956745	0.00177215576171875	1.05316162109375
433	1.05712890625	17.1567439566834	0.0018133544921875	1.0565185546875
434	1.0595703125	17.1811439566218	0.0018670654296875	1.05865478515625
435	1.06201171875	17.2055439565602	0.00192230224609375	1.0614013671875
436	1.064453125	17.2299439564986	0.00196807861328125	1.06292724609375
437	1.06689453125	17.254343956437	0.00203155517578125	1.06658935546875
438	1.0693359375	17.2787439563754	0.002071533203125	1.06842041015625
439	1.07177734375	17.3031439563138	0.00213897705078125	1.070556640625
440	1.07421875	17.3275439562522	0.00218505859375	1.07330322265625
441	1.07666015625	17.3519439561906	0.00224639892578125	1.07574462890625
442	1.0791015625	17.3763439561289	0.00229949951171875	1.0784912109375
443	1.08154296875	17.4007439560673	0.00235137939453125	1.08062744140625
444	1.083984375	17.4251439560057	0.002415771484375	1.08306884765625
445	1.08642578125	17.4495439559441	0.00246368408203125	1.085205078125
446	1.0888671875	17.4739439558825	0.002532958984375	1.08734130859375
447	1.09130859375	17.4983439558209	0.00257904052734375	1.09039306640625
448	1.09375	17.5227439557593	0.00264556884765625	1.09283447265625
449	1.09619140625	17.5471439556977	0.0027008056640625	1.09527587890625
450	1.0986328125	17.5715439556361	0.00276031494140625	1.09771728515625
451	1.10107421875	17.5959439555745	0.00282379150390625	1.099853515625
452	1.103515625	17.6203439555129	0.00287506103515625	1.102294921875
453	1.10595703125	17.6447439554513	0.0029461669921875	1.10504150390625
454	1.1083984375	17.6691439553897	0.002998046875	1.10748291015625
455	1.11083984375	17.6935439553281	0.00306884765625	1.109619140625
456	1.11328125	17.7179439552665	0.0031231689453125	1.11236572265625
457	1.11572265625	17.7423439552049	0.0031866455078125	1.114501953125
458	1.1181640625	17.7667439551433	0.003250732421875	1.11663818359375
459	1.12060546875	17.7911439550817	0.00330902099609375	1.11968994140625
460	1.123046875	17.8155439550201	0.00337860107421875	1.12213134765625
461	1.12548828125	17.8399439549585	0.00343109130859375	1.124267578125
462	1.1279296875	17.8643439548969	0.00350311279296875	1.12640380859375
463	1.13037109375	17.8887439548353	0.0035595703125	1.129150390625
464	1.1328125	17.9131439547737	0.0036260986328125	1.131591796875
465	1.13525390625	17.9375439547121	0.00368621826171875	1.13433837890625
466	1.1376953125	17.9619439546505	0.00374481201171875	1.1370849609375
467	1.14013671875	17.9863439545888	0.00381103515625	1.1395263671875
468	1.142578125	18.0107439545272	0.00386505126953125	1.14166259765625
469	1.14501953125	18.0351439544656	0.00393157958984375	1.14410400390625
470	1.1474609375	18.059543954404	0.00398162841796875	1.14654541015625
471	1.14990234375	18.0839439543424	0.00404296875	1.148681640625
472	1.15234375	18.1083439542808	0.00409576416015625	1.1517333984375
473	1.15478515625	18.1327439542192	0.004149169921875	1.15325927734375
474	1.1572265625	18.1571439541576	0.00420257568359375	1.15631103515625
475	1.15966796875	18.181543954096	0.0042474365234375	1.158447265625
476	1.162109375	18.2059439540344	0.00430023193359375	1.16119384765625
477	1.16455078125	18.2303439539728	0.00434173583984375	1.163330078125
478	1.1669921875	18.2547439539112	0.0043902587890625	1.16607666015625
479	1.16943359375	18.2791439538496	0.0044293212890625	1.16790771484375
480	1.171875	18.303543953788	0.00447052001953125	1.170654296875
481	1.17431640625	18.3279439537264	0.004510498046875	1.173095703125
482	1.1767578125	18.3523439536648	0.00454620361328125	1.175537109375
483	1.17919921875	18.3767439536032	0.0045849609375	1.177978515625
484	1.181640625	18.4011439535416	0.004615478515625	1.1810302734375
485	1.18408203125	18.42554395348	0.004652099609375	1.182861328125
486	1.1865234375	18.4499439534184	0.0046820068359375	1.18621826171875
487	1.18896484375	18.4743439533568	0.00471405029296875	1.187744140625
488	1.19140625	18.4987439532952	0.0047430419921875	1.190185546875
489	1.19384765625	18.5231439532336	0.00477081298828125	1.192626953125
490	1.1962890625	18.547543953172	0.00480010986328125	1.19537353515625
491	1.19873046875	18.5719439531103	0.00482513427734375	1.19781494140625
492	1.201171875	18.5963439530487	0.0048529052734375	1.20025634765625
493	1.19873046875	18.6207439529871	0.00482513427734375	1.197509765625
494	1.1962890625	18.6451439529255	0.00480010986328125	1.19537353515625
495	1.19384765625	18.6695439528639	0.004771728515625	1.192626953125
496	1.19140625	18.6939439528023	0.00474334716796875	1.18988037109375
497	1.18896484375	18.7183439527407	0.00471466064453125	1.18804931640625
498	1.1865234375	18.7427439526791	0.004681396484375	1.18560791015625
499	1.18408203125	18.7671439526175	0.0046527099609375	1.18316650390625
500	1.181640625	18.7915439525559	0.00461669921875	1.18072509765625
501	1.17919921875	18.8159439524943	0.00458587646484375	1.17767333984375
502	1.1767578125	18.8403439524327	0.004547119140625	1.17584228515625
503	1.17431640625	18.8647439523711	0.00451019287109375	1.17340087890625
504	1.171875	18.8891439523095	0.0044720458984375	1.17095947265625
505	1.16943359375	18.9135439522479	0.00442962646484375	1.168212890625
506	1.1669921875	18.9379439521863	0.004390869140625	1.16546630859375
507	1.16455078125	18.9623439521247	0.0043414306640625	1.16302490234375
508	1.162109375	18.9867439520631	0.00430084228515625	1.16058349609375
509	1.15966796875	19.0111439520015	0.00424957275390625	1.158447265625
510	1.1572265625	19.0355439519399	0.004202880859375	1.15570068359375
511	1.15478515625	19.0599439518783	0.00415008544921875	1.153564453125
512	1.15234375	19.0843439518167	0.0040936279296875	1.15142822265625
513	1.14990234375	19.1087439517551	0.0040435791015625	1.148681640625
514	1.1474609375	19.1331439516935	0.0039813232421875	1.146240234375
515	1.14501953125	19.1575439516319	0.0039312744140625	1.1444091796875
516	1.142578125	19.1819439515702	0.003863525390625	1.141357421875
517	1.14013671875	19.2063439515086	0.0038092041015625	1.13922119140625
518	1.1376953125	19.230743951447	0.0037457275390625	1.13677978515625
519	1.13525390625	19.2551439513854	0.0036834716796875	1.134033203125
520	1.1328125	19.2795439513238	0.0036248779296875	1.131591796875
521	1.13037109375	19.3039439512622	0.0035540771484375	1.1297607421875
522	1.1279296875	19.3283439512006	0.00350067138671875	1.1273193359375
523	1.12548828125	19.352743951139	0.003428955078125	1.12457275390625
524	1.123046875	19.3771439510774	0.00337493896484375	1.121826171875
525	1.12060546875	19.4015439510158	0.00330535888671875	1.11968994140625
526	1.1181640625	19.4259439509542	0.00324310302734375	1.1175537109375
527	1.11572265625	19.4503439508926	0.00318328857421875	1.11480712890625
528	1.11328125	19.474743950831	0.003115234375	1.11297607421875
529	1.11083984375	19.4991439507694	0.00306182861328125	1.10931396484375
530	1.1083984375	19.5235439507078	0.00298797607421875	1.10748291015625
531	1.10595703125	19.5479439506462	0.0029376220703125	1.10504150390625
532	1.103515625	19.5723439505846	0.00286895751953125	1.1029052734375
533	1.10107421875	19.596743950523	0.0028131103515625	1.099853515625
534	1.0986328125	19.6211439504614	0.00275115966796875	1.097412109375
535	1.09619140625	19.6455439503998	0.002685546875	1.094970703125
536	1.09375	19.6699439503382	0.0026348876953125	1.0931396484375
537	1.09130859375	19.6943439502766	0.00256561279296875	1.090087890625
538	1.0888671875	19.718743950215	0.00251953125	1.087646484375
539	1.08642578125	19.7431439501534	0.00244873046875	1.0858154296875
540	1.083984375	19.7675439500917	0.002398681640625	1.08367919921875
541	1.08154296875	19.7919439500301	0.00233917236328125	1.08062744140625
542	1.0791015625	19.8163439499685	0.0022808837890625	1.07879638671875
543	1.07666015625	19.8407439499069	0.002230224609375	1.07574462890625
544	1.07421875	19.8651439498453	0.0021624755859375	1.07269287109375
545	1.07177734375	19.8895439497837	0.00212127685546875	1.070556640625
546	1.0693359375	19.9139439497221	0.002054443359375	1.068115234375
547	1.06689453125	19.9383439496605	0.00201202392578125	1.06597900390625
548	1.064453125	19.9627439495989	0.001949462890625	1.0638427734375
549	1.06201171875	19.9871439495373	0.00189666748046875	1.06109619140625
550	1.0595703125	20.0115439494757	0.0018487548828125	1.05865478515625
551	1.05712890625	20.0359439494141	0.00178802490234375	1.05621337890625
552	1.0546875	20.0603439493525	0.00174896240234375	1.05377197265625
553	1.05224609375	20.0847439492909	0.001680908203125	1.051025390625
554	1.0498046875	20.1091439492293	0.0016455078125	1.048583984375
555	1.04736328125	20.1335439491677	0.00158599853515625	1.04583740234375
556	1.044921875	20.1579439491061	0.001541748046875	1.0430908203125
557	1.04248046875	20.1823439490445	0.0014923095703125	1.04156494140625
558	1.0400390625	20.2067439489829	0.00143524169921875	1.038818359375
559	1.03759765625	20.2311439489213	0.00140045166015625	1.03607177734375
560	1.03515625	20.2555439488597	0.0013385009765625	1.03424072265625
561	1.03271484375	20.2799439487981	0.0013092041015625	1.0321044921875
562	1.0302734375	20.3043439487365	0.00124664306640625	1.02935791015625
563	1.02783203125	20.3287439486749	0.00121002197265625	1.02691650390625
564	1.025390625	20.3531439486133	0.0011627197265625	1.02447509765625
565	1.02294921875	20.3775439485516	0.0011151123046875	1.021728515625
566	1.0205078125	20.40194394849	0.00108062744140625	1.01959228515625
567	1.01806640625	20.4263439484284	0.0010198974609375	1.01715087890625
568	1.015625	20.4507439483668	0.00099639892578125	1.01470947265625
569	1.01318359375	20.4751439483052	0.00093841552734375	1.0125732421875
570	1.0107421875	20.4995439482436	0.00091156005859375	1.00982666015625
571	1.00830078125	20.523943948182	0.000860595703125	1.007080078125
572	1.005859375	20.5483439481204	0.000819091796875	1.00494384765625
573	1.00341796875	20.5727439480588	0.00078765869140625	1.00250244140625
574	1.0009765625	20.5971439479972	0.00073577880859375	1.0003662109375
575	0.99853515625	20.6215439479356	0.00071533203125	0.997314453125
576	0.99609375	20.645943947874	0.00065521240234375	0.9954833984375
577	0.99365234375	20.6703439478124	0.00063751220703125	0.99273681640625
578	0.9912109375	20.6947439477508	0.00058929443359375	0.99029541015625
579	0.98876953125	20.7191439476892	0.00055816650390625	0.98785400390625
580	0.986328125	20.7435439476276	0.00052337646484375	0.9857177734375
581	0.98388671875	20.767943947566	0.0004752197265625	0.98358154296875
582	0.9814453125	20.7923439475044	0.00045947265625	0.98052978515625
583	0.97900390625	20.8167439474428	0.0004061279296875	0.97808837890625
584	0.9765625	20.8411439473812	0.00039532470703125	0.97625732421875
585	0.97412109375	20.8655439473196	0.000343017578125	0.97320556640625
586	0.9716796875	20.889943947258	0.000320587158203125	0.9710693359375
587	0.96923828125	20.9143439471964	0.000288787841796875	0.96771240234375
588	0.966796875	20.9387439471348	0.000250579833984375	0.9661865234375
589	0.96435546875	20.9631439470731	0.000234649658203125	0.963134765625
590	0.9619140625	20.9875439470115	0.000181640625	0.9613037109375
591	0.95947265625	21.0119439469499	0.00017822265625	0.95916748046875
592	0.95703125	21.0363439468883	0.000130035400390625	0.955810546875
593	0.95458984375	21.0607439468267	0.00011834716796875	0.9539794921875
594	0.9521484375	21.0851439467651	8.0535888671875E-05	0.95123291015625
595	0.94970703125	21.1095439467035	4.9407958984375E-05	0.9490966796875
596	0.947265625	21.1339439466419	3.5980224609375E-05	0.94635009765625
597	0.94482421875	21.1583439465803	-8.1207275390625E-06	0.9442138671875
598	0.9423828125	21.1827439465187	-8.8348388671875E-06	0.94146728515625
599	0.93994140625	21.2071439464571	-6.15234375E-05	0.9393310546875
600	0.9375	21.2315439463955	-6.2744140625E-05	0.93658447265625
601	0.93505859375	21.2559439463339	-9.9090576171875E-05	0.933837890625
602	0.9326171875	21.2803439462723	-0.000118408203125	0.93231201171875
603	0.93017578125	21.3047439462107	-0.00013714599609375	0.92926025390625
604	0.927734375	21.3291439461491	-0.000177764892578125	0.9271240234375
605	0.92529296875	21.3535439460875	-0.000174346923828125	0.9246826171875
606	0.9228515625	21.3779439460259	-0.000221282958984375	0.9222412109375
607	0.92041015625	21.4023439459643	-0.000213958740234375	0.92010498046875
608	0.91796875	21.4267439459027	-0.000258087158203125	0.916748046875
609	0.91552734375	21.4511439458411	-0.000268280029296875	0.914306640625
610	0.9130859375	21.4755439457795	-0.000285980224609375	0.91156005859375
611	0.91064453125	21.4999439457179	-0.000315277099609375	0.90972900390625
612	0.908203125	21.5243439456563	-0.00031463623046875	0.90728759765625
613	0.90576171875	21.5487439455947	-0.000362518310546875	0.90484619140625
614	0.9033203125	21.573143945533	-0.000349090576171875	0.902099609375
615	0.90087890625	21.5975439454714	-0.000389129638671875	0.89996337890625
616	0.8984375	21.6219439454098	-0.000388641357421875	0.89752197265625
617	0.89599609375	21.6463439453482	-0.000415069580078125	0.89569091796875
618	0.8935546875	21.6707439452866	-0.00043890380859375	0.892333984375
619	0.89111328125	21.695143945225	-0.000437042236328125	0.89019775390625
620	0.888671875	21.7195439451634	-0.000475921630859375	0.887451171875
621	0.88623046875	21.7439439451018	-0.00046136474609375	0.885009765625
622	0.8837890625	21.7683439450402	-0.0005078125	0.88287353515625
623	0.88134765625	21.7927439449786	-0.00049713134765625	0.880126953125
624	0.87890625	21.817143944917	-0.000523681640625	0.87799072265625
625	0.87646484375	21.8415439448554	-0.00053619384765625	0.8758544921875
626	0.8740234375	21.8659439447938	-0.0005419921875	0.87310791015625
627	0.87158203125	21.8903439447322	-0.00057861328125	0.8709716796875
628	0.869140625	21.9147439446706	-0.0005615234375	0.867919921875
629	0.86669921875	21.939143944609	-0.00060333251953125	0.865478515625
630	0.8642578125	21.9635439445474	-0.000584716796875	0.86395263671875
631	0.86181640625	21.9879439444858	-0.000621337890625	0.86090087890625
632	0.859375	22.0123439444242	-0.00062469482421875	0.858154296875
633	0.85693359375	22.0367439443626	-0.00063201904296875	0.85601806640625
634	0.8544921875	22.061143944301	-0.000657958984375	0.85357666015625
635	0.85205078125	22.0855439442394	-0.00064544677734375	0.8514404296875
636	0.849609375	22.1099439441778	-0.00069061279296875	0.84869384765625
637	0.84716796875	22.1343439441162	-0.00066680908203125	0.84686279296875
638	0.8447265625	22.1587439440545	-0.0007025146484375	0.8441162109375
639	0.84228515625	22.1831439439929	-0.0006951904296875	0.84136962890625
640	0.83984375	22.2075439439313	-0.00071441650390625	0.838623046875
641	0.83740234375	22.2319439438697	-0.00073455810546875	0.83648681640625
642	0.8349609375	22.2563439438081	-0.0007232666015625	0.8343505859375
643	0.83251953125	22.2807439437465	-0.0007598876953125	0.83160400390625
644	0.830078125	22.3051439436849	-0.000736083984375	0.830078125
645	0.82763671875	22.3295439436233	-0.0007806396484375	0.82672119140625
646	0.8251953125	22.3539439435617	-0.00076446533203125	0.8245849609375
647	0.82275390625	22.3783439435001	-0.00078521728515625	0.821533203125
648	0.8203125	22.4027439434385	-0.00079437255859375	0.8197021484375
649	0.81787109375	22.4271439433769	-0.0007928466796875	0.81695556640625
650	0.8154296875	22.4515439433153	-0.00082763671875	0.8148193359375
651	0.81298828125	22.4759439432537	-0.0008026123046875	0.8123779296875
652	0.810546875	22.5003439431921	-0.00084228515625	0.80963134765625
653	0.80810546875	22.5247439431305	-0.00081878662109375	0.80718994140625
654	0.8056640625	22.5491439430689	-0.00085174560546875	0.80474853515625
655	0.80322265625	22.5735439430073	-0.00085296630859375	0.8026123046875
656	0.80078125	22.5979439429457	-0.00085418701171875	0.79925537109375
657	0.79833984375	22.6223439428841	-0.00087890625	0.79742431640625
658	0.7958984375	22.6467439428225	-0.00086029052734375	0.794677734375
659	0.79345703125	22.6711439427609	-0.00090423583984375	0.7928466796875
660	0.791015625	22.6955439426993	-0.00087493896484375	0.7904052734375
661	0.78857421875	22.7199439426377	-0.0009075927734375	0.78704833984375
662	0.7861328125	22.7443439425761	-0.00089813232421875	0.78521728515625
663	0.78369140625	22.7687439425144	-0.00091217041015625	0.7830810546875
664	0.78125	22.7931439424528	-0.000931396484375	0.78125
665	0.77880859375	22.8175439423912	-0.00091461181640625	0.77789306640625
666	0.7763671875	22.8419439423296	-0.000950927734375	0.77606201171875
667	0.77392578125	22.866343942268	-0.000921630859375	0.77362060546875
668	0.771484375	22.8907439422064	-0.00096466064453125	0.77056884765625
669	0.76904296875	22.9151439421448	-0.00094635009765625	0.76873779296875
670	0.7666015625	22.9395439420832	-0.00096282958984375	0.7659912109375
671	0.76416015625	22.9639439420216	-0.0009716796875	0.7635498046875
672	0.76171875	22.98834394196	-0.0009649658203125	0.76080322265625
673	0.75927734375	23.0127439418984	-0.0010003662109375	0.7586669921875
674	0.7568359375	23.0371439418368	-0.00097076416015625	0.755615234375
675	0.75439453125	23.0615439417752	-0.00100982666015625	0.75286865234375
676	0.751953125	23.0859439417136	-0.00098358154296875	0.7513427734375
677	0.74951171875	23.110343941652	-0.00101348876953125	0.74945068359375
678	0.7470703125	23.1347439415904	-0.00101531982421875	0.746978759765625
679	0.74462890625	23.1591439415288	-0.0010113525390625	0.7445068359375
680	0.7421875	23.1835439414672	-0.001036376953125	0.74212646484375
681	0.73974609375	23.2079439414056	-0.0010125732421875	0.73968505859375
682	0.7373046875	23.232343941344	-0.00105682373046875	0.73724365234375
683	0.73486328125	23.2567439412824	-0.0010247802734375	0.734771728515625
684	0.732421875	23.2811439412208	-0.0010546875	0.732391357421875
685	0.72998046875	23.3055439411592	-0.0010455322265625	0.72998046875
686	0.7275390625	23.3299439410976	-0.00105499267578125	0.72747802734375
687	0.72509765625	23.3543439410359	-0.0010760498046875	0.725067138671875
688	0.72265625	23.3787439409743	-0.0010540771484375	0.722564697265625
689	0.72021484375	23.4031439409127	-0.00109039306640625	0.72021484375
690	0.7177734375	23.4275439408511	-0.001058349609375	0.71771240234375
691	0.71533203125	23.4519439407895	-0.0010992431640625	0.7152099609375
692	0.712890625	23.4763439407279	-0.00108154296875	0.712799072265625
693	0.71044921875	23.5007439406663	-0.00109405517578125	0.71038818359375
694	0.7080078125	23.5251439406047	-0.0011041259765625	0.70794677734375
695	0.70556640625	23.5495439405431	-0.00109283447265625	0.705474853515625
696	0.703125	23.5739439404815	-0.001129150390625	0.703155517578125
697	0.70068359375	23.5983439404199	-0.00109588623046875	0.700653076171875
698	0.6982421875	23.6227439403583	-0.0011334228515625	0.69818115234375
699	0.69580078125	23.6471439402967	-0.0011065673828125	0.69580078125
700	0.693359375	23.6715439402351	-0.0011334228515625	0.693359375
701	0.69091796875	23.6959439401735	-0.00113555908203125	0.69091796875
702	0.6884765625	23.7203439401119	-0.0011273193359375	0.68841552734375
703	0.68603515625	23.7447439400503	-0.00115386962890625	0.68609619140625
704	0.68359375	23.7691439399887	-0.0011260986328125	0.683563232421875
705	0.68115234375	23.7935439399271	-0.0011700439453125	0.68121337890625
706	0.6787109375	23.8179439398655	-0.0011370849609375	0.67864990234375
707	0.67626953125	23.8423439398039	-0.00116424560546875	0.67626953125
708	0.673828125	23.8667439397423	-0.00115570068359375	0.673858642578125
709	0.67138671875	23.8911439396807	-0.00116119384765625	0.67138671875
710	0.6689453125	23.9155439396191	-0.0011834716796875	0.66900634765625
711	0.66650390625	23.9399439395575	-0.0011578369140625	0.66644287109375
712	0.6640625	23.9643439394958	-0.00119476318359375	0.664154052734375
713	0.66162109375	23.9887439394342	-0.00115997314453125	0.66162109375
714	0.6591796875	24.0131439393726	-0.00119873046875	0.65924072265625
715	0.65673828125	24.037543939311	-0.00118194580078125	0.656829833984375
716	0.654296875	24.0619439392494	-0.00119049072265625	0.65435791015625
717	0.65185546875	24.0863439391878	-0.001201171875	0.651947021484375
718	0.6494140625	24.1107439391262	-0.00118560791015625	0.649383544921875
719	0.64697265625	24.1351439390646	-0.00122344970703125	0.64703369140625
720	0.64453125	24.159543939003	-0.00118682861328125	0.644561767578125
721	0.64208984375	24.1839439389414	-0.00122344970703125	0.642181396484375
722	0.6396484375	24.2083439388798	-0.00119659423828125	0.6396484375
723	0.63720703125	24.2327439388182	-0.00122039794921875	0.637237548828125
724	0.634765625	24.2571439387566	-0.001224365234375	0.634765625
725	0.63232421875	24.281543938695	-0.00121246337890625	0.632354736328125
726	0.6298828125	24.3059439386334	-0.0012396240234375	0.6300048828125
727	0.62744140625	24.3303439385718	-0.00120880126953125	0.627532958984375
728	0.625	24.3547439385102	-0.0012530517578125	0.625091552734375
729	0.62255859375	24.3791439384486	-0.001219482421875	0.6226806640625
730	0.6201171875	24.403543938387	-0.001243896484375	0.6201171875
731	0.61767578125	24.4279439383254	-0.00123687744140625	0.617767333984375
732	0.615234375	24.4523439382638	-0.0012384033203125	0.6153564453125
733	0.61279296875	24.4767439382022	-0.00126220703125	0.612945556640625
734	0.6103515625	24.5011439381406	-0.00123260498046875	0.61041259765625
735	0.60791015625	24.525543938079	-0.00126953125	0.608062744140625
736	0.60546875	24.5499439380173	-0.0012335205078125	0.605560302734375
737	0.60302734375	24.5743439379557	-0.0012701416015625	0.603118896484375
738	0.6005859375	24.5987439378941	-0.00125396728515625	0.600738525390625
739	0.59814453125	24.6231439378325	-0.0012591552734375	0.598236083984375
740	0.595703125	24.6475439377709	-0.00127105712890625	0.595794677734375
741	0.59326171875	24.6719439377093	-0.00125274658203125	0.59332275390625
742	0.5908203125	24.6963439376477	-0.0012908935546875	0.5909423828125
743	0.58837890625	24.7207439375861	-0.00125335693359375	0.588409423828125
744	0.5859375	24.7451439375245	-0.0012884521484375	0.58599853515625
745	0.58349609375	24.7695439374629	-0.00126251220703125	0.583587646484375
746	0.5810546875	24.7939439374013	-0.001282958984375	0.581146240234375
747	0.57861328125	24.8183439373397	-0.0012884521484375	0.57861328125
748	0.576171875	24.8427439372781	-0.00127349853515625	0.576263427734375
749	0.57373046875	24.8671439372165	-0.0013018798828125	0.573883056640625
750	0.5712890625	24.8915439371549	-0.00126861572265625	0.57135009765625
751	0.56884765625	24.9159439370933	-0.00131195068359375	0.5689697265625
752	0.56640625	24.9403439370317	-0.001278076171875	0.56646728515625
753	0.56396484375	24.9647439369701	-0.0013006591796875	0.564056396484375
754	0.5615234375	24.9891439369085	-0.0012945556640625	0.56158447265625
755	0.55908203125	25.0135439368469	-0.00129302978515625	0.5592041015625
756	0.556640625	25.0379439367853	-0.00131866455078125	0.556732177734375
757	0.55419921875	25.0623439367237	-0.00128662109375	0.554290771484375
758	0.5517578125	25.0867439366621	-0.001324462890625	0.551910400390625
759	0.54931640625	25.1111439366005	-0.0012872314453125	0.549407958984375
760	0.546875	25.1355439365389	-0.0013232421875	0.5469970703125
761	0.54443359375	25.1599439364772	-0.00130889892578125	0.5445556640625
762	0.5419921875	25.1843439364156	-0.0013116455078125	0.5421142578125
763	0.53955078125	25.208743936354	-0.00132537841796875	0.5396728515625
764	0.537109375	25.2331439362924	-0.0013031005859375	0.53717041015625
765	0.53466796875	25.2575439362308	-0.0013427734375	0.53485107421875
766	0.5322265625	25.2819439361692	-0.0013037109375	0.532318115234375
767	0.52978515625	25.3063439361076	-0.001337890625	0.5299072265625
768	0.52734375	25.330743936046	-0.0013128662109375	0.527435302734375
769	0.52490234375	25.3551439359844	-0.0013311767578125	0.5250244140625
770	0.5224609375	25.3795439359228	-0.00133819580078125	0.5225830078125
771	0.52001953125	25.4039439358612	-0.00131988525390625	0.5201416015625
772	0.517578125	25.4283439357996	-0.0013494873046875	0.517730712890625
773	0.51513671875	25.452743935738	-0.0013140869140625	0.5152587890625
774	0.5126953125	25.4771439356764	-0.00135711669921875	0.51287841796875
775	0.51025390625	25.5015439356148	-0.0013238525390625	0.51031494140625
776	0.5078125	25.5259439355532	-0.00134429931640625	0.507843017578125
777	0.50537109375	25.5503439354916	-0.00134002685546875	0.50555419921875
778	0.5029296875	25.57474393543	-0.00133544921875	0.5030517578125
779	0.50048828125	25.5991439353684	-0.00136199951171875	0.5006103515625
780	0.498046875	25.6235439353068	-0.00132781982421875	0.49810791015625
781	0.49560546875	25.6479439352452	-0.0013653564453125	0.495819091796875
782	0.4931640625	25.6723439351836	-0.0013275146484375	0.4932861328125
783	0.49072265625	25.696743935122	-0.0013616943359375	0.4908447265625
784	0.48828125	25.7211439350604	-0.001348876953125	0.48846435546875
785	0.48583984375	25.7455439349988	-0.00134857177734375	0.4859619140625
786	0.4833984375	25.7699439349371	-0.0013641357421875	0.48358154296875
787	0.48095703125	25.7943439348755	-0.00133941650390625	0.481109619140625
788	0.478515625	25.8187439348139	-0.00137969970703125	0.4786376953125
789	0.47607421875	25.8431439347523	-0.001339111328125	0.476165771484375
790	0.4736328125	25.8675439346907	-0.00137176513671875	0.473724365234375
791	0.47119140625	25.8919439346291	-0.00134765625	0.4713134765625
792	0.46875	25.9163439345675	-0.00136322021484375	0.468841552734375
793	0.46630859375	25.9407439345059	-0.0013720703125	0.4664306640625
794	0.4638671875	25.9651439344443	-0.001351318359375	0.464019775390625
795	0.46142578125	25.9895439343827	-0.0013818359375	0.461578369140625
796	0.458984375	26.0139439343211	-0.001343994140625	0.45904541015625
797	0.45654296875	26.0383439342595	-0.00138580322265625	0.45672607421875
798	0.4541015625	26.0627439341979	-0.00135223388671875	0.45428466796875
799	0.45166015625	26.0871439341363	-0.00136962890625	0.451751708984375
800	0.44921875	26.1115439340747	-0.00136566162109375	0.4493408203125
801	0.44677734375	26.1359439340131	-0.00135833740234375	0.446929931640625
802	0.4443359375	26.1603439339515	-0.001385498046875	0.444549560546875
803	0.44189453125	26.1847439338899	-0.00134857177734375	0.4420166015625
804	0.439453125	26.2091439338283	-0.00138519287109375	0.439697265625
805	0.43701171875	26.2335439337667	-0.0013470458984375	0.437225341796875
806	0.4345703125	26.2579439337051	-0.00137908935546875	0.4346923828125
807	0.43212890625	26.2823439336435	-0.0013671875	0.43231201171875
808	0.4296875	26.3067439335819	-0.00136383056640625	0.429840087890625
809	0.42724609375	26.3311439335203	-0.00138031005859375	0.427398681640625
810	0.4248046875	26.3555439334586	-0.001353759765625	0.424957275390625
811	0.42236328125	26.379943933397	-0.00139434814453125	0.42254638671875
812	0.419921875	26.4043439333354	-0.00135284423828125	0.42010498046875
813	0.41748046875	26.4287439332738	-0.00138427734375	0.417633056640625
814	0.4150390625	26.4531439332122	-0.00136199951171875	0.415191650390625
815	0.41259765625	26.4775439331506	-0.0013751220703125	0.412750244140625
816	0.41015625	26.501943933089	-0.001385498046875	0.410308837890625
817	0.40771484375	26.5263439330274	-0.00136260986328125	0.407867431640625
818	0.4052734375	26.5507439329658	-0.00139373779296875	0.405487060546875
819	0.40283203125	26.5751439329042	-0.0013555908203125	0.402984619140625
820	0.400390625	26.5995439328426	-0.001397705078125	0.400543212890625
821	0.39794921875	26.623943932781	-0.00136627197265625	0.398101806640625
822	0.3955078125	26.6483439327194	-0.0013824462890625	0.3956298828125
823	0.39306640625	26.6727439326578	-0.00138092041015625	0.39324951171875
824	0.390625	26.6971439325962	-0.0013714599609375	0.390777587890625
825	0.38818359375	26.7215439325346	-0.00140106201171875	0.388427734375
826	0.3857421875	26.745943932473	-0.00136383056640625	0.3858642578125
827	0.38330078125	26.7703439324114	-0.0014007568359375	0.383544921875
828	0.380859375	26.7947439323498	-0.00136322021484375	0.381072998046875
829	0.37841796875	26.8191439322882	-0.00139404296875	0.3785400390625
830	0.3759765625	26.8435439322266	-0.00138427734375	0.376190185546875
831	0.37353515625	26.867943932165	-0.00137908935546875	0.37371826171875
832	0.37109375	26.8923439321034	-0.00139678955078125	0.37127685546875
833	0.36865234375	26.9167439320418	-0.001368408203125	0.368804931640625
834	0.3662109375	26.9411439319802	-0.00140960693359375	0.36639404296875
835	0.36376953125	26.9655439319185	-0.00136810302734375	0.363922119140625
836	0.361328125	26.9899439318569	-0.00139801025390625	0.3614501953125
837	0.35888671875	27.0143439317953	-0.00137786865234375	0.359100341796875
838	0.3564453125	27.0387439317337	-0.00138824462890625	0.35662841796875
839	0.35400390625	27.0631439316721	-0.0014007568359375	0.35418701171875
840	0.3515625	27.0875439316105	-0.00137603759765625	0.3516845703125
841	0.34912109375	27.1119439315489	-0.00140777587890625	0.349395751953125
842	0.3466796875	27.1363439314873	-0.00136871337890625	0.34686279296875
843	0.34423828125	27.1607439314257	-0.00141021728515625	0.34442138671875
844	0.341796875	27.1851439313641	-0.001380615234375	0.341949462890625
845	0.33935546875	27.2095439313025	-0.0013946533203125	0.339508056640625
846	0.3369140625	27.2339439312409	-0.001395263671875	0.33709716796875
847	0.33447265625	27.2583439311793	-0.00138336181640625	0.334625244140625
848	0.33203125	27.2827439311177	-0.00141448974609375	0.33221435546875
849	0.32958984375	27.3071439310561	-0.001375732421875	0.32977294921875
850	0.3271484375	27.3315439309945	-0.0014129638671875	0.327362060546875
851	0.32470703125	27.3559439309329	-0.00137664794921875	0.324859619140625
852	0.322265625	27.3803439308713	-0.0014056396484375	0.322418212890625
853	0.31982421875	27.4047439308097	-0.00139801025390625	0.3199462890625
854	0.3173828125	27.4291439307481	-0.001390380859375	0.317535400390625
855	0.31494140625	27.4535439306865	-0.00141021728515625	0.315185546875
856	0.3125	27.4779439306249	-0.00137969970703125	0.312591552734375
857	0.31005859375	27.5023439305633	-0.00142181396484375	0.310302734375
858	0.3076171875	27.5267439305017	-0.00138031005859375	0.30780029296875
859	0.30517578125	27.55114393044	-0.0014093017578125	0.30535888671875
860	0.302734375	27.5755439303784	-0.0013909912109375	0.30291748046875
861	0.30029296875	27.5999439303168	-0.00139923095703125	0.300445556640625
862	0.2978515625	27.6243439302552	-0.00141387939453125	0.29803466796875
863	0.29541015625	27.6487439301936	-0.00138763427734375	0.29559326171875
864	0.29296875	27.673143930132	-0.00142120361328125	0.293212890625
865	0.29052734375	27.6975439300704	-0.00138153076171875	0.290679931640625
866	0.2880859375	27.7219439300088	-0.0014227294921875	0.288330078125
867	0.28564453125	27.7463439299472	-0.00139495849609375	0.28582763671875
868	0.283203125	27.7707439298856	-0.00140655517578125	0.28338623046875
869	0.28076171875	27.795143929824	-0.0014093017578125	0.2808837890625
870	0.2783203125	27.8195439297624	-0.00139495849609375	0.278472900390625
871	0.27587890625	27.8439439297008	-0.0014276123046875	0.276092529296875
872	0.2734375	27.8683439296392	-0.00138763427734375	0.273529052734375
873	0.27099609375	27.8927439295776	-0.001424560546875	0.271209716796875
874	0.2685546875	27.917143929516	-0.0013885498046875	0.26873779296875
875	0.26611328125	27.9415439294544	-0.001416015625	0.266265869140625
876	0.263671875	27.9659439293928	-0.0014111328125	0.26385498046875
877	0.26123046875	27.9903439293312	-0.00140106201171875	0.261444091796875
878	0.2587890625	28.0147439292696	-0.00142242431640625	0.259063720703125
879	0.25634765625	28.039143929208	-0.001390380859375	0.256500244140625
880	0.25390625	28.0635439291464	-0.00143280029296875	0.25408935546875
881	0.25146484375	28.0879439290848	-0.0013916015625	0.25164794921875
882	0.2490234375	28.1123439290232	-0.00141937255859375	0.2491455078125
883	0.24658203125	28.1367439289616	-0.0014031982421875	0.246795654296875
884	0.244140625	28.1611439288999	-0.00140899658203125	0.244293212890625
885	0.24169921875	28.1855439288383	-0.00142547607421875	0.24188232421875
886	0.2392578125	28.2099439287767	-0.00139678955078125	0.239410400390625
887	0.23681640625	28.2343439287151	-0.0014312744140625	0.237030029296875
888	0.234375	28.2587439286535	-0.00139068603515625	0.23455810546875
889	0.23193359375	28.2831439285919	-0.0014306640625	0.23211669921875
890	0.2294921875	28.3075439285303	-0.00140472412109375	0.22967529296875
891	0.22705078125	28.3319439284687	-0.00141448974609375	0.227203369140625
892	0.224609375	28.3563439284071	-0.0014190673828125	0.224822998046875
893	0.22216796875	28.3807439283455	-0.00140289306640625	0.22235107421875
894	0.2197265625	28.4051439282839	-0.00143707275390625	0.220001220703125
895	0.21728515625	28.4295439282223	-0.00139617919921875	0.217437744140625
896	0.21484375	28.4539439281607	-0.00143280029296875	0.215057373046875
897	0.21240234375	28.4783439280991	-0.00139862060546875	0.21258544921875
898	0.2099609375	28.5027439280375	-0.0014239501953125	0.210205078125
899	0.20751953125	28.5271439279759	-0.0014208984375	0.207733154296875
900	0.205078125	28.5515439279143	-0.0014093017578125	0.205230712890625
901	0.20263671875	28.5759439278527	-0.0014324951171875	0.202789306640625
902	0.2001953125	28.6003439277911	-0.0013995361328125	0.200347900390625
903	0.19775390625	28.6247439277295	-0.00144256591796875	0.197998046875
904	0.1953125	28.6491439276679	-0.001402587890625	0.195465087890625
905	0.19287109375	28.6735439276063	-0.00142852783203125	0.19305419921875
906	0.1904296875	28.6979439275447	-0.00141448974609375	0.19061279296875
907	0.18798828125	28.7223439274831	-0.0014178466796875	0.188232421875
908	0.185546875	28.7467439274214	-0.00143646240234375	0.185760498046875
909	0.18310546875	28.7711439273598	-0.00140594482421875	0.18328857421875
910	0.1806640625	28.7955439272982	-0.0014410400390625	0.180938720703125
911	0.17822265625	28.8199439272366	-0.00139984130859375	0.178466796875
912	0.17578125	28.844343927175	-0.00143890380859375	0.175994873046875
913	0.17333984375	28.8687439271134	-0.00141510009765625	0.173553466796875
914	0.1708984375	28.8931439270518	-0.0014227294921875	0.171051025390625
915	0.16845703125	28.9175439269902	-0.0014288330078125	0.168670654296875
916	0.166015625	28.9419439269286	-0.0014111328125	0.166168212890625
917	0.16357421875	28.966343926867	-0.00144683837890625	0.16387939453125
918	0.1611328125	28.9907439268054	-0.0014056396484375	0.161376953125
919	0.15869140625	29.0151439267438	-0.001441650390625	0.158935546875
920	0.15625	29.0395439266822	-0.00140838623046875	0.156463623046875
921	0.15380859375	29.0639439266206	-0.00143280029296875	0.154052734375
922	0.1513671875	29.088343926559	-0.0014312744140625	0.151611328125
923	0.14892578125	29.1127439264974	-0.0014178466796875	0.149169921875
924	0.146484375	29.1371439264358	-0.0014422607421875	0.146728515625
925	0.14404296875	29.1615439263742	-0.0014080810546875	0.144287109375
926	0.1416015625	29.1859439263126	-0.00145172119140625	0.141815185546875
927	0.13916015625	29.210343926251	-0.00141143798828125	0.13934326171875
928	0.13671875	29.2347439261894	-0.00143707275390625	0.136962890625
929	0.13427734375	29.2591439261278	-0.0014239501953125	0.134490966796875
930	0.1318359375	29.2835439260662	-0.00142578125	0.13201904296875
931	0.12939453125	29.3079439260046	-0.0014453125	0.129638671875
932	0.126953125	29.332343925943	-0.00141387939453125	0.127166748046875
933	0.12451171875	29.3567439258813	-0.0014501953125	0.124847412109375
934	0.1220703125	29.3811439258197	-0.00140869140625	0.122283935546875
935	0.11962890625	29.4055439257581	-0.00144683837890625	0.11981201171875
936	0.1171875	29.4299439256965	-0.00142333984375	0.11737060546875
937	0.11474609375	29.4543439256349	-0.00142974853515625	0.114990234375
938	0.1123046875	29.4787439255733	-0.001436767578125	0.112548828125
939	0.10986328125	29.5031439255117	-0.00141754150390625	0.110107421875
940	0.107421875	29.5275439254501	-0.001453857421875	0.107696533203125
941	0.10498046875	29.5519439253885	-0.00141143798828125	0.10516357421875
942	0.1025390625	29.5763439253269	-0.0014471435546875	0.102752685546875
943	0.10009765625	29.6007439252653	-0.00141448974609375	0.100372314453125
944	0.09765625	29.6251439252037	-0.00143768310546875	0.097900390625
945	0.09521484375	29.6495439251421	-0.0014373779296875	0.095428466796875
946	0.0927734375	29.6739439250805	-0.0014227294921875	0.093048095703125
947	0.09033203125	29.6983439250189	-0.00144744873046875	0.09063720703125
948	0.087890625	29.7227439249573	-0.001412353515625	0.088104248046875
949	0.08544921875	29.7471439248957	-0.00145599365234375	0.08575439453125
950	0.0830078125	29.7715439248341	-0.00141632080078125	0.083251953125
951	0.08056640625	29.7959439247725	-0.00144073486328125	0.080780029296875
952	0.078125	29.8203439247109	-0.00142822265625	0.078369140625
953	0.07568359375	29.8447439246493	-0.001429443359375	0.075958251953125
954	0.0732421875	29.8691439245877	-0.00144989013671875	0.073486328125
955	0.07080078125	29.8935439245261	-0.00141754150390625	0.070953369140625
956	0.068359375	29.9179439244645	-0.00145294189453125	0.068634033203125
957	0.06591796875	29.9423439244028	-0.0014117431640625	0.066131591796875
958	0.0634765625	29.9667439243412	-0.00144989013671875	0.063690185546875
959	0.06103515625	29.9911439242796	-0.0014276123046875	0.061309814453125
960	0.05859375	30.015543924218	-0.00143310546875	0.058807373046875
961	0.05615234375	30.0399439241564	-0.00144134521484375	0.056488037109375
962	0.0537109375	30.0643439240948	-0.00142120361328125	0.053985595703125
963	0.05126953125	30.0887439240332	-0.00145782470703125	0.051513671875
964	0.048828125	30.1131439239716	-0.00141571044921875	0.0489593505859375
965	0.04638671875	30.13754392391	-0.00145233154296875	0.0465850830078125
966	0.0439453125	30.1619439238484	-0.0014190673828125	0.0441162109375
967	0.04150390625	30.1863439237868	-0.00144256591796875	0.0416778564453125
968	0.0390625	30.2107439237252	-0.00144195556640625	0.0392242431640625
969	0.03662109375	30.2351439236636	-0.0014276123046875	0.0367706298828125
970	0.0341796875	30.259543923602	-0.00145233154296875	0.034375
971	0.03173828125	30.2839439235404	-0.001417236328125	0.0319061279296875
972	0.029296875	30.3083439234788	-0.0014605712890625	0.02950439453125
973	0.02685546875	30.3327439234172	-0.0014202880859375	0.027008056640625
974	0.0244140625	30.3571439233556	-0.00144500732421875	0.024566650390625
975	0.02197265625	30.381543923294	-0.001431884765625	0.0221527099609375
976	0.01953125	30.4059439232324	-0.00143341064453125	0.0196868896484375
977	0.01708984375	30.4303439231708	-0.0014532470703125	0.0172760009765625
978	0.0146484375	30.4547439231092	-0.00142120361328125	0.0148101806640625
979	0.01220703125	30.4791439230476	-0.0014569091796875	0.0124267578125
980	0.009765625	30.503543922986	-0.00141571044921875	0.009930419921875
981	0.00732421875	30.5279439229244	-0.00145416259765625	0.00750732421875
982	0.0048828125	30.5523439228627	-0.001431884765625	0.0050323486328125
983	0.00244140625	30.5767439228011	-0.00143798828125	0.00258789062500001
984	0	30.6011439227395	-0.00144561767578125	0.0001983642578125
985	0.00244140625	30.6255439226779	-0.0014251708984375	0.002593994140625
986	0.0048828125	30.6499439226163	-0.0014605712890625	0.0050994873046875
