Index	Potential applied (V)	Time (s)	WE(1).Current (A)	WE(1).Potential (V)
1	0.00244140625	286.599121276407	-3.69781494140625E-05	0.00258483886718749
2	0.0048828125	286.623521276345	-3.71978759765625E-05	0.005047607421875
3	0.00732421875	286.647921276284	-3.67706298828125E-05	0.007476806640625
4	0.009765625	286.672321276222	-3.62030029296875E-05	0.0099151611328125
5	0.01220703125	286.69672127616	-3.63372802734375E-05	0.0123443603515625
6	0.0146484375	286.721121276099	-3.521728515625E-05	0.0148040771484375
7	0.01708984375	286.745521276037	-3.5797119140625E-05	0.017236328125
8	0.01953125	286.769921275976	-3.46435546875E-05	0.0196807861328125
9	0.02197265625	286.794321275914	-3.47808837890625E-05	0.02213134765625
10	0.0244140625	286.818721275852	-3.42132568359375E-05	0.024578857421875
11	0.02685546875	286.843121275791	-3.39324951171875E-05	0.0270355224609375
12	0.029296875	286.867521275729	-3.4112548828125E-05	0.029443359375
13	0.03173828125	286.891921275668	-3.306884765625E-05	0.031884765625
14	0.0341796875	286.916321275606	-3.3544921875E-05	0.0343475341796875
15	0.03662109375	286.940721275544	-3.23455810546875E-05	0.03675537109375
16	0.0390625	286.965121275483	-3.27880859375E-05	0.0392059326171875
17	0.04150390625	286.989521275421	-3.21929931640625E-05	0.0416473388671875
18	0.0439453125	287.01392127536	-3.19976806640625E-05	0.04407958984375
19	0.04638671875	287.038321275298	-3.19793701171875E-05	0.046539306640625
20	0.048828125	287.062721275236	-3.11798095703125E-05	0.048974609375
21	0.05126953125	287.087121275175	-3.179931640625E-05	0.0513916015625
22	0.0537109375	287.111521275113	-3.04962158203125E-05	0.0538330078125
23	0.05615234375	287.135921275051	-3.09112548828125E-05	0.0562744140625
24	0.05859375	287.16032127499	-3.0255126953125E-05	0.058685302734375
25	0.06103515625	287.184721274928	-3.011474609375E-05	0.06121826171875
26	0.0634765625	287.209121274867	-3.00872802734375E-05	0.063568115234375
27	0.06591796875	287.233521274805	-2.92999267578125E-05	0.0660400390625
28	0.068359375	287.257921274743	-2.9705810546875E-05	0.068450927734375
29	0.07080078125	287.282321274682	-2.8570556640625E-05	0.070892333984375
30	0.0732421875	287.30672127462	-2.9107666015625E-05	0.073272705078125
31	0.07568359375	287.331121274559	-2.82501220703125E-05	0.075775146484375
32	0.078125	287.355521274497	-2.803955078125E-05	0.0782470703125
33	0.08056640625	287.379921274435	-2.7838134765625E-05	0.08062744140625
34	0.0830078125	287.404321274374	-2.71209716796875E-05	0.08306884765625
35	0.08544921875	287.428721274312	-2.760009765625E-05	0.085540771484375
36	0.087890625	287.453121274251	-2.608642578125E-05	0.0880126953125
37	0.09033203125	287.477521274189	-2.6617431640625E-05	0.0904541015625
38	0.0927734375	287.501921274127	-2.5537109375E-05	0.092926025390625
39	0.09521484375	287.526321274066	-2.5628662109375E-05	0.095306396484375
40	0.09765625	287.550721274004	-2.528076171875E-05	0.097747802734375
41	0.10009765625	287.575121273943	-2.4530029296875E-05	0.10015869140625
42	0.1025390625	287.599521273881	-2.4853515625E-05	0.1026611328125
43	0.10498046875	287.623921273819	-2.35595703125E-05	0.105133056640625
44	0.107421875	287.648321273758	-2.41455078125E-05	0.107513427734375
45	0.10986328125	287.672721273696	-2.303466796875E-05	0.109954833984375
46	0.1123046875	287.697121273635	-2.32574462890625E-05	0.1124267578125
47	0.11474609375	287.721521273573	-2.2894287109375E-05	0.1148681640625
48	0.1171875	287.745921273511	-2.237548828125E-05	0.117279052734375
49	0.11962890625	287.77032127345	-2.27325439453125E-05	0.119720458984375
50	0.1220703125	287.794721273388	-2.1728515625E-05	0.122161865234375
51	0.12451171875	287.819121273327	-2.200927734375E-05	0.1246337890625
52	0.126953125	287.843521273265	-2.09381103515625E-05	0.1270751953125
53	0.12939453125	287.867921273203	-2.13470458984375E-05	0.129486083984375
54	0.1318359375	287.892321273142	-2.10052490234375E-05	0.1319580078125
55	0.13427734375	287.91672127308	-2.0355224609375E-05	0.13433837890625
56	0.13671875	287.941121273019	-2.0465087890625E-05	0.13677978515625
57	0.13916015625	287.965521272957	-1.94366455078125E-05	0.13922119140625
58	0.1416015625	287.989921272895	-2.0025634765625E-05	0.14166259765625
59	0.14404296875	288.014321272834	-1.88446044921875E-05	0.14410400390625
60	0.146484375	288.038721272772	-1.91070556640625E-05	0.146514892578125
61	0.14892578125	288.063121272711	-1.85455322265625E-05	0.148956298828125
62	0.1513671875	288.087521272649	-1.8353271484375E-05	0.151458740234375
63	0.15380859375	288.111921272587	-1.84417724609375E-05	0.153900146484375
64	0.15625	288.136321272526	-1.74530029296875E-05	0.1563720703125
65	0.15869140625	288.160721272464	-1.77001953125E-05	0.158721923828125
66	0.1611328125	288.185121272403	-1.62689208984375E-05	0.161163330078125
67	0.16357421875	288.209521272341	-1.68792724609375E-05	0.163604736328125
68	0.166015625	288.233921272279	-1.612548828125E-05	0.166046142578125
69	0.16845703125	288.258321272218	-1.57623291015625E-05	0.168548583984375
70	0.1708984375	288.282721272156	-1.5960693359375E-05	0.17095947265625
71	0.17333984375	288.307121272094	-1.50421142578125E-05	0.17340087890625
72	0.17578125	288.331521272033	-1.5411376953125E-05	0.175872802734375
73	0.17822265625	288.355921271971	-1.4129638671875E-05	0.178253173828125
74	0.1806640625	288.38032127191	-1.4801025390625E-05	0.18072509765625
75	0.18310546875	288.404721271848	-1.365966796875E-05	0.183197021484375
76	0.185546875	288.429121271786	-1.34857177734375E-05	0.185577392578125
77	0.18798828125	288.453521271725	-1.33453369140625E-05	0.18804931640625
78	0.1904296875	288.477921271663	-1.240234375E-05	0.190521240234375
79	0.19287109375	288.502321271602	-1.27685546875E-05	0.19293212890625
80	0.1953125	288.52672127154	-1.14898681640625E-05	0.195404052734375
81	0.19775390625	288.551121271478	-1.20452880859375E-05	0.197723388671875
82	0.2001953125	288.575521271417	-1.13861083984375E-05	0.200225830078125
83	0.20263671875	288.599921271355	-1.1181640625E-05	0.20269775390625
84	0.205078125	288.624321271294	-1.10504150390625E-05	0.205169677734375
85	0.20751953125	288.648721271232	-1.06231689453125E-05	0.207550048828125
86	0.2099609375	288.67312127117	-1.08062744140625E-05	0.21002197265625
87	0.21240234375	288.697521271109	-9.41162109375E-06	0.21246337890625
88	0.21484375	288.721921271047	-9.8297119140625E-06	0.21484375
89	0.21728515625	288.746321270986	-9.124755859375E-06	0.21734619140625
90	0.2197265625	288.770721270924	-9.0545654296875E-06	0.219818115234375
91	0.22216796875	288.795121270862	-8.5296630859375E-06	0.222198486328125
92	0.224609375	288.819521270801	-7.9803466796875E-06	0.2247314453125
93	0.22705078125	288.843921270739	-8.0230712890625E-06	0.227142333984375
94	0.2294921875	288.868321270678	-7.0831298828125E-06	0.229583740234375
95	0.23193359375	288.892721270616	-7.391357421875E-06	0.23199462890625
96	0.234375	288.917121270554	-6.4117431640625E-06	0.23443603515625
97	0.23681640625	288.941521270493	-6.5643310546875E-06	0.23681640625
98	0.2392578125	288.965921270431	-5.95703125E-06	0.239349365234375
99	0.24169921875	288.99032127037	-5.108642578125E-06	0.241729736328125
100	0.244140625	289.014721270308	-5.3924560546875E-06	0.244140625
101	0.24658203125	289.039121270246	-4.4647216796875E-06	0.246612548828125
102	0.2490234375	289.063521270185	-5.047607421875E-06	0.248992919921875
103	0.25146484375	289.087921270123	-3.448486328125E-06	0.25146484375
104	0.25390625	289.112321270062	-4.16107177734375E-06	0.253997802734375
105	0.25634765625	289.13672127	-3.70147705078125E-06	0.25640869140625
106	0.2587890625	289.161121269938	-3.45001220703125E-06	0.258819580078125
107	0.26123046875	289.185521269877	-3.24188232421875E-06	0.2613525390625
108	0.263671875	289.209921269815	-2.1710205078125E-06	0.263763427734375
109	0.26611328125	289.234321269754	-2.4444580078125E-06	0.266143798828125
110	0.2685546875	289.258721269692	-1.3189697265625E-06	0.26861572265625
111	0.27099609375	289.28312126963	-1.91619873046875E-06	0.27099609375
112	0.2734375	289.307521269569	-1.23565673828125E-06	0.27349853515625
113	0.27587890625	289.331921269507	-8.2855224609375E-07	0.27593994140625
114	0.2783203125	289.356321269446	-4.50439453125E-07	0.27838134765625
115	0.28076171875	289.380721269384	2.276611328125E-07	0.280731201171875
116	0.283203125	289.405121269322	-4.4952392578125E-07	0.283233642578125
117	0.28564453125	289.429521269261	1.14227294921875E-06	0.285614013671875
118	0.2880859375	289.453921269199	1.21307373046875E-06	0.28802490234375
119	0.29052734375	289.478321269137	1.959228515625E-06	0.290557861328125
120	0.29296875	289.502721269076	1.51214599609375E-06	0.292938232421875
121	0.29541015625	289.527121269014	2.12066650390625E-06	0.29541015625
122	0.2978515625	289.551521268953	2.88543701171875E-06	0.29779052734375
123	0.30029296875	289.575921268891	2.38372802734375E-06	0.300262451171875
124	0.302734375	289.600321268829	3.93463134765625E-06	0.30267333984375
125	0.30517578125	289.624721268768	3.587646484375E-06	0.305084228515625
126	0.3076171875	289.649121268706	4.4769287109375E-06	0.30755615234375
127	0.31005859375	289.673521268645	4.4219970703125E-06	0.309967041015625
128	0.3125	289.697921268583	5.1544189453125E-06	0.3123779296875
129	0.31494140625	289.722321268521	6.1492919921875E-06	0.314849853515625
130	0.3173828125	289.74672126846	5.255126953125E-06	0.3172607421875
131	0.31982421875	289.771121268398	6.6162109375E-06	0.3197021484375
132	0.322265625	289.795521268337	6.35986328125E-06	0.322113037109375
133	0.32470703125	289.819921268275	7.3486328125E-06	0.3245849609375
134	0.3271484375	289.844321268213	7.4462890625E-06	0.3270263671875
135	0.32958984375	289.868721268152	8.1939697265625E-06	0.3294677734375
136	0.33203125	289.89312126809	8.612060546875E-06	0.3319091796875
137	0.33447265625	289.917521268029	8.5723876953125E-06	0.334320068359375
138	0.3369140625	289.941921267967	9.783935546875E-06	0.33673095703125
139	0.33935546875	289.966321267905	9.490966796875E-06	0.339202880859375
140	0.341796875	289.990721267844	1.0418701171875E-05	0.341705322265625
141	0.34423828125	290.015121267782	1.00372314453125E-05	0.34405517578125
142	0.3466796875	290.039521267721	1.087646484375E-05	0.34649658203125
143	0.34912109375	290.063921267659	1.10076904296875E-05	0.348968505859375
144	0.3515625	290.088321267597	1.11907958984375E-05	0.35137939453125
145	0.35400390625	290.112721267536	1.2347412109375E-05	0.353851318359375
146	0.3564453125	290.137121267474	1.21185302734375E-05	0.356292724609375
147	0.35888671875	290.161521267413	1.37603759765625E-05	0.35870361328125
148	0.361328125	290.185921267351	1.35589599609375E-05	0.361083984375
149	0.36376953125	290.210321267289	1.4385986328125E-05	0.363555908203125
150	0.3662109375	290.234721267228	1.473388671875E-05	0.365966796875
151	0.36865234375	290.259121267166	1.4471435546875E-05	0.368408203125
152	0.37109375	290.283521267105	1.55517578125E-05	0.370849609375
153	0.37353515625	290.307921267043	1.48590087890625E-05	0.373260498046875
154	0.3759765625	290.332321266981	1.65771484375E-05	0.375762939453125
155	0.37841796875	290.35672126692	1.65618896484375E-05	0.378082275390625
156	0.380859375	290.381121266858	1.69036865234375E-05	0.380615234375
157	0.38330078125	290.405521266797	1.76116943359375E-05	0.3829345703125
158	0.3857421875	290.429921266735	1.7950439453125E-05	0.38543701171875
159	0.38818359375	290.454321266673	1.876220703125E-05	0.387908935546875
160	0.390625	290.478721266612	1.83502197265625E-05	0.390289306640625
161	0.39306640625	290.50312126655	1.93817138671875E-05	0.3927001953125
162	0.3955078125	290.527521266489	1.87896728515625E-05	0.395172119140625
163	0.39794921875	290.551921266427	2.0025634765625E-05	0.397613525390625
164	0.400390625	290.576321266365	2.05108642578125E-05	0.39996337890625
165	0.40283203125	290.600721266304	2.12310791015625E-05	0.402435302734375
166	0.4052734375	290.625121266242	2.18597412109375E-05	0.40484619140625
167	0.40771484375	290.64952126618	2.19085693359375E-05	0.407318115234375
168	0.41015625	290.673921266119	2.30316162109375E-05	0.40972900390625
169	0.41259765625	290.698321266057	2.3016357421875E-05	0.412109375
170	0.4150390625	290.722721265996	2.48931884765625E-05	0.414581298828125
171	0.41748046875	290.747121265934	2.49420166015625E-05	0.41693115234375
172	0.419921875	290.771521265872	2.6031494140625E-05	0.419464111328125
173	0.42236328125	290.795921265811	2.66204833984375E-05	0.42181396484375
174	0.4248046875	290.820321265749	2.64190673828125E-05	0.42431640625
175	0.42724609375	290.844721265688	2.73468017578125E-05	0.42669677734375
176	0.4296875	290.869121265626	2.747802734375E-05	0.429107666015625
177	0.43212890625	290.893521265564	2.8460693359375E-05	0.431488037109375
178	0.4345703125	290.917921265503	2.8338623046875E-05	0.4339599609375
179	0.43701171875	290.942321265441	2.86376953125E-05	0.4364013671875
180	0.439453125	290.96672126538	2.94189453125E-05	0.438812255859375
181	0.44189453125	290.991121265318	2.86956787109375E-05	0.44134521484375
182	0.4443359375	291.015521265256	2.978515625E-05	0.443695068359375
183	0.44677734375	291.039921265195	3.07861328125E-05	0.446044921875
184	0.44921875	291.064321265133	3.2110595703125E-05	0.449066162109375
185	0.45166015625	291.088721265072	3.2171630859375E-05	0.451568603515625
186	0.4541015625	291.11312126501	3.287353515625E-05	0.45404052734375
187	0.45654296875	291.137521264948	3.380126953125E-05	0.45648193359375
188	0.458984375	291.161921264887	3.33770751953125E-05	0.458892822265625
189	0.46142578125	291.186321264825	3.5430908203125E-05	0.4613037109375
190	0.4638671875	291.210721264764	3.5614013671875E-05	0.4637451171875
191	0.46630859375	291.235121264702	3.72039794921875E-05	0.466217041015625
192	0.46875	291.25952126464	3.685302734375E-05	0.468658447265625
193	0.47119140625	291.283921264579	3.824462890625E-05	0.471099853515625
194	0.4736328125	291.308321264517	3.87847900390625E-05	0.4735107421875
195	0.47607421875	291.332721264456	3.9239501953125E-05	0.4759521484375
196	0.478515625	291.357121264394	4.02130126953125E-05	0.478424072265625
197	0.48095703125	291.381521264332	4.0386962890625E-05	0.480865478515625
198	0.4833984375	291.405921264271	4.139404296875E-05	0.483306884765625
199	0.48583984375	291.430321264209	4.2462158203125E-05	0.485748291015625
200	0.48828125	291.454721264148	4.34478759765625E-05	0.4881591796875
201	0.49072265625	291.479121264086	4.37164306640625E-05	0.49066162109375
202	0.4931640625	291.503521264024	4.41375732421875E-05	0.4930419921875
203	0.49560546875	291.527921263963	4.5867919921875E-05	0.495452880859375
204	0.498046875	291.552321263901	4.6429443359375E-05	0.4979248046875
205	0.50048828125	291.57672126384	4.8345947265625E-05	0.5003662109375
206	0.5029296875	291.601121263778	4.80010986328125E-05	0.5028076171875
207	0.50537109375	291.625521263716	4.986572265625E-05	0.505218505859375
208	0.5078125	291.649921263655	5.072021484375E-05	0.50762939453125
209	0.51025390625	291.674321263593	5.2337646484375E-05	0.5101318359375
210	0.5126953125	291.698721263532	5.3741455078125E-05	0.5125732421875
211	0.51513671875	291.72312126347	5.3314208984375E-05	0.514984130859375
212	0.517578125	291.747521263408	5.535888671875E-05	0.5174560546875
213	0.52001953125	291.771921263347	5.5755615234375E-05	0.519866943359375
214	0.5224609375	291.796321263285	5.7220458984375E-05	0.5223388671875
215	0.52490234375	291.820721263224	5.8502197265625E-05	0.524810791015625
216	0.52734375	291.845121263162	5.914306640625E-05	0.5272216796875
217	0.52978515625	291.8695212631	6.0791015625E-05	0.52960205078125
218	0.5322265625	291.893921263039	6.11572265625E-05	0.532135009765625
219	0.53466796875	291.918321262977	6.329345703125E-05	0.534576416015625
220	0.537109375	291.942721262915	6.3507080078125E-05	0.536956787109375
221	0.53955078125	291.967121262854	6.5643310546875E-05	0.53936767578125
222	0.5419921875	291.991521262792	6.70166015625E-05	0.541839599609375
223	0.54443359375	292.015921262731	6.8756103515625E-05	0.544281005859375
224	0.546875	292.040321262669	7.0343017578125E-05	0.546722412109375
225	0.54931640625	292.064721262607	7.1563720703125E-05	0.54913330078125
226	0.5517578125	292.089121262546	7.305908203125E-05	0.551605224609375
227	0.55419921875	292.113521262484	7.373046875E-05	0.55401611328125
228	0.556640625	292.137921262423	7.5836181640625E-05	0.5565185546875
229	0.55908203125	292.162321262361	7.647705078125E-05	0.55889892578125
230	0.5615234375	292.186721262299	7.843017578125E-05	0.56134033203125
231	0.56396484375	292.211121262238	7.9925537109375E-05	0.563751220703125
232	0.56640625	292.235521262176	8.0810546875E-05	0.566192626953125
233	0.56884765625	292.259921262115	8.349609375E-05	0.568634033203125
234	0.5712890625	292.284321262053	8.538818359375E-05	0.57110595703125
235	0.57373046875	292.308721261991	8.6822509765625E-05	0.573516845703125
236	0.576171875	292.33312126193	8.8897705078125E-05	0.57598876953125
237	0.57861328125	292.357521261868	9.0423583984375E-05	0.578369140625
238	0.5810546875	292.381921261807	9.2620849609375E-05	0.58087158203125
239	0.58349609375	292.406321261745	9.48486328125E-05	0.583251953125
240	0.5859375	292.430721261683	9.6160888671875E-05	0.585723876953125
241	0.58837890625	292.455121261622	9.7900390625E-05	0.588134765625
242	0.5908203125	292.47952126156	0.00010089111328125	0.590606689453125
243	0.59326171875	292.503921261499	0.00010235595703125	0.59307861328125
244	0.595703125	292.528321261437	0.000105010986328125	0.595489501953125
245	0.59814453125	292.552721261375	0.000106781005859375	0.597900390625
246	0.6005859375	292.577121261314	0.0001090087890625	0.600311279296875
247	0.60302734375	292.601521261252	0.000111846923828125	0.60284423828125
248	0.60546875	292.625921261191	0.00011376953125	0.605194091796875
249	0.60791015625	292.650321261129	0.000118194580078125	0.607696533203125
250	0.6103515625	292.674721261067	0.00011944580078125	0.610015869140625
251	0.61279296875	292.699121261006	0.000123992919921875	0.61248779296875
252	0.615234375	292.723521260944	0.000126007080078125	0.614959716796875
253	0.61767578125	292.747921260883	0.000129974365234375	0.617340087890625
254	0.6201171875	292.772321260821	0.000132476806640625	0.619781494140625
255	0.62255859375	292.796721260759	0.000134246826171875	0.62225341796875
256	0.625	292.821121260698	0.000138397216796875	0.624664306640625
257	0.62744140625	292.845521260636	0.00014068603515625	0.6270751953125
258	0.6298828125	292.869921260575	0.00014495849609375	0.6295166015625
259	0.63232421875	292.894321260513	0.00014776611328125	0.63189697265625
260	0.634765625	292.918721260451	0.0001519775390625	0.6343994140625
261	0.63720703125	292.94312126039	0.000155029296875	0.636810302734375
262	0.6396484375	292.967521260328	0.00015826416015625	0.639251708984375
263	0.64208984375	292.991921260267	0.00016241455078125	0.64166259765625
264	0.64453125	293.016321260205	0.000165557861328125	0.644073486328125
265	0.64697265625	293.040721260143	0.000170745849609375	0.64654541015625
266	0.6494140625	293.065121260082	0.000174957275390625	0.649017333984375
267	0.65185546875	293.08952126002	0.00017913818359375	0.6513671875
268	0.654296875	293.113921259958	0.00018414306640625	0.65374755859375
269	0.65673828125	293.138321259897	0.000188873291015625	0.656280517578125
270	0.6591796875	293.162721259835	0.00019287109375	0.65869140625
271	0.66162109375	293.187121259774	0.0001978759765625	0.661102294921875
272	0.6640625	293.211521259712	0.000203826904296875	0.663543701171875
273	0.66650390625	293.23592125965	0.000207733154296875	0.66595458984375
274	0.6689453125	293.260321259589	0.000213623046875	0.66839599609375
275	0.67138671875	293.284721259527	0.00021832275390625	0.67083740234375
276	0.673828125	293.309121259466	0.00022442626953125	0.673187255859375
277	0.67626953125	293.333521259404	0.000231597900390625	0.6756591796875
278	0.6787109375	293.357921259342	0.000236846923828125	0.678131103515625
279	0.68115234375	293.382321259281	0.000243133544921875	0.680450439453125
280	0.68359375	293.406721259219	0.000248382568359375	0.68280029296875
281	0.68603515625	293.431121259158	0.000255279541015625	0.685333251953125
282	0.6884765625	293.455521259096	0.0002620849609375	0.687713623046875
283	0.69091796875	293.479921259034	0.000268951416015625	0.690093994140625
284	0.693359375	293.504321258973	0.00027734375	0.6925048828125
285	0.69580078125	293.528721258911	0.0002830810546875	0.694976806640625
286	0.6982421875	293.55312125885	0.00029095458984375	0.697357177734375
287	0.70068359375	293.577521258788	0.000298126220703125	0.699798583984375
288	0.703125	293.601921258726	0.000307464599609375	0.702301025390625
289	0.70556640625	293.626321258665	0.00031561279296875	0.705352783203125
290	0.7080078125	293.650721258603	0.00032470703125	0.707794189453125
291	0.71044921875	293.675121258542	0.00033367919921875	0.710205078125
292	0.712890625	293.69952125848	0.0003421630859375	0.712677001953125
293	0.71533203125	293.723921258418	0.00035198974609375	0.715118408203125
294	0.7177734375	293.748321258357	0.000361297607421875	0.717529296875
295	0.72021484375	293.772721258295	0.000372100830078125	0.719970703125
296	0.72265625	293.797121258234	0.00038037109375	0.722412109375
297	0.72509765625	293.821521258172	0.0003909912109375	0.72491455078125
298	0.7275390625	293.84592125811	0.000402435302734375	0.727325439453125
299	0.72998046875	293.870321258049	0.00041253662109375	0.72979736328125
300	0.732421875	293.894721257987	0.0004234619140625	0.732177734375
301	0.73486328125	293.919121257926	0.000435516357421875	0.734619140625
302	0.7373046875	293.943521257864	0.000447906494140625	0.737060546875
303	0.73974609375	293.967921257802	0.00045989990234375	0.739501953125
304	0.7421875	293.992321257741	0.00047210693359375	0.741851806640625
305	0.74462890625	294.016721257679	0.000484588623046875	0.74432373046875
306	0.7470703125	294.041121257618	0.00049676513671875	0.74676513671875
307	0.74951171875	294.065521257556	0.000511474609375	0.749298095703125
308	0.751953125	294.089921257494	0.0005242919921875	0.750732421875
309	0.75439453125	294.114321257433	0.00053985595703125	0.75408935546875
310	0.7568359375	294.138721257371	0.00055267333984375	0.7562255859375
311	0.75927734375	294.16312125731	0.000567626953125	0.7586669921875
312	0.76171875	294.187521257248	0.0005828857421875	0.7611083984375
313	0.76416015625	294.211921257186	0.00059814453125	0.76385498046875
314	0.7666015625	294.236321257125	0.0006121826171875	0.7659912109375
315	0.76904296875	294.260721257063	0.00062957763671875	0.767822265625
316	0.771484375	294.285121257001	0.00064544677734375	0.7708740234375
317	0.77392578125	294.30952125694	0.00066314697265625	0.77301025390625
318	0.7763671875	294.333921256878	0.00068084716796875	0.7757568359375
319	0.77880859375	294.358321256817	0.000699462890625	0.777587890625
320	0.78125	294.382721256755	0.0007177734375	0.7806396484375
321	0.78369140625	294.407121256693	0.00073577880859375	0.7830810546875
322	0.7861328125	294.431521256632	0.00075469970703125	0.78521728515625
323	0.78857421875	294.45592125657	0.00077423095703125	0.7879638671875
324	0.791015625	294.480321256509	0.0007940673828125	0.79010009765625
325	0.79345703125	294.504721256447	0.0008148193359375	0.792236328125
326	0.7958984375	294.529121256385	0.00083526611328125	0.79498291015625
327	0.79833984375	294.553521256324	0.00085723876953125	0.7977294921875
328	0.80078125	294.577921256262	0.00087738037109375	0.8001708984375
329	0.80322265625	294.602321256201	0.00089996337890625	0.8026123046875
330	0.8056640625	294.626721256139	0.00092071533203125	0.8050537109375
331	0.80810546875	294.651121256077	0.0009442138671875	0.8074951171875
332	0.810546875	294.675521256016	0.00096710205078125	0.809326171875
333	0.81298828125	294.699921255954	0.00099029541015625	0.81207275390625
334	0.8154296875	294.724321255893	0.00101531982421875	0.81512451171875
335	0.81787109375	294.748721255831	0.00103790283203125	0.81695556640625
336	0.8203125	294.773121255769	0.00106475830078125	0.819091796875
337	0.82275390625	294.797521255708	0.00108734130859375	0.8221435546875
338	0.8251953125	294.821921255646	0.00111328125	0.8245849609375
339	0.82763671875	294.846321255585	0.0011395263671875	0.826416015625
340	0.830078125	294.870721255523	0.0011663818359375	0.82916259765625
341	0.83251953125	294.895121255461	0.00119354248046875	0.83160400390625
342	0.8349609375	294.9195212554	0.001220703125	0.83343505859375
343	0.83740234375	294.943921255338	0.001248779296875	0.8367919921875
344	0.83984375	294.968321255277	0.00127655029296875	0.8392333984375
345	0.84228515625	294.992721255215	0.00130584716796875	0.84136962890625
346	0.8447265625	295.017121255153	0.001334228515625	0.84320068359375
347	0.84716796875	295.041521255092	0.0013641357421875	0.845947265625
348	0.849609375	295.06592125503	0.00139404296875	0.84869384765625
349	0.85205078125	295.090321254969	0.00142425537109375	0.85113525390625
350	0.8544921875	295.114721254907	0.00145599365234375	0.853271484375
351	0.85693359375	295.139121254845	0.00148590087890625	0.8563232421875
352	0.859375	295.163521254784	0.00151947021484375	0.85784912109375
353	0.86181640625	295.187921254722	0.00155120849609375	0.8612060546875
354	0.8642578125	295.212321254661	0.0015838623046875	0.86273193359375
355	0.86669921875	295.236721254599	0.0016168212890625	0.8660888671875
356	0.869140625	295.261121254537	0.00164947509765625	0.8685302734375
357	0.87158203125	295.285521254476	0.00168487548828125	0.8709716796875
358	0.8740234375	295.309921254414	0.0017169189453125	0.87310791015625
359	0.87646484375	295.334321254353	0.00175262451171875	0.87615966796875
360	0.87890625	295.358721254291	0.00178619384765625	0.87799072265625
361	0.88134765625	295.383121254229	0.00182220458984375	0.880126953125
362	0.8837890625	295.407521254168	0.00185882568359375	0.88287353515625
363	0.88623046875	295.431921254106	0.0018951416015625	0.88531494140625
364	0.888671875	295.456321254044	0.00193206787109375	0.887451171875
365	0.89111328125	295.480721253983	0.0019671630859375	0.8905029296875
366	0.8935546875	295.505121253921	0.002005615234375	0.89324951171875
367	0.89599609375	295.52952125386	0.0020428466796875	0.8953857421875
368	0.8984375	295.553921253798	0.00208282470703125	0.897216796875
369	0.90087890625	295.578321253736	0.0021209716796875	0.89996337890625
370	0.9033203125	295.602721253675	0.00215911865234375	0.90240478515625
371	0.90576171875	295.627121253613	0.00220001220703125	0.9051513671875
372	0.908203125	295.651521253552	0.00223846435546875	0.9075927734375
373	0.91064453125	295.67592125349	0.00227996826171875	0.9100341796875
374	0.9130859375	295.700321253428	0.0023193359375	0.9124755859375
375	0.91552734375	295.724721253367	0.0023614501953125	0.91400146484375
376	0.91796875	295.749121253305	0.0024029541015625	0.9173583984375
377	0.92041015625	295.773521253244	0.00244537353515625	0.92010498046875
378	0.9228515625	295.797921253182	0.00248748779296875	0.9222412109375
379	0.92529296875	295.82232125312	0.0025286865234375	0.9246826171875
380	0.927734375	295.846721253059	0.00257354736328125	0.92681884765625
381	0.93017578125	295.871121252997	0.00261505126953125	0.9295654296875
382	0.9326171875	295.895521252936	0.00266021728515625	0.93170166015625
383	0.93505859375	295.919921252874	0.00270294189453125	0.9344482421875
384	0.9375	295.944321252812	0.00274810791015625	0.936279296875
385	0.93994140625	295.968721252751	0.00279388427734375	0.938720703125
386	0.9423828125	295.993121252689	0.002838134765625	0.9417724609375
387	0.94482421875	296.017521252628	0.0028863525390625	0.94390869140625
388	0.947265625	296.041921252566	0.0029296875	0.94635009765625
389	0.94970703125	296.066321252504	0.00297760009765625	0.948486328125
390	0.9521484375	296.090721252443	0.00302276611328125	0.950927734375
391	0.95458984375	296.115121252381	0.00306976318359375	0.9539794921875
392	0.95703125	296.13952125232	0.00311737060546875	0.9564208984375
393	0.95947265625	296.163921252258	0.00316314697265625	0.958251953125
394	0.9619140625	296.188321252196	0.00321258544921875	0.960693359375
395	0.96435546875	296.212721252135	0.0032586669921875	0.96343994140625
396	0.966796875	296.237121252073	0.00330810546875	0.96588134765625
397	0.96923828125	296.261521252012	0.00335479736328125	0.96832275390625
398	0.9716796875	296.28592125195	0.00340423583984375	0.97076416015625
399	0.97412109375	296.310321251888	0.0034527587890625	0.9735107421875
400	0.9765625	296.334721251827	0.00350128173828125	0.9759521484375
401	0.97900390625	296.359121251765	0.0035504150390625	0.97808837890625
402	0.9814453125	296.383521251704	0.00359771728515625	0.98052978515625
403	0.98388671875	296.407921251642	0.0036480712890625	0.98297119140625
404	0.986328125	296.43232125158	0.00369537353515625	0.9857177734375
405	0.98876953125	296.456721251519	0.00374481201171875	0.98785400390625
406	0.9912109375	296.481121251457	0.00379302978515625	0.99029541015625
407	0.99365234375	296.505521251396	0.00384033203125	0.99334716796875
408	0.99609375	296.529921251334	0.00388916015625	0.9954833984375
409	0.99853515625	296.554321251272	0.003935546875	0.9979248046875
410	1.0009765625	296.578721251211	0.00398345947265625	1.00006103515625
411	1.00341796875	296.603121251149	0.0040277099609375	1.0028076171875
412	1.005859375	296.627521251088	0.0040740966796875	1.00494384765625
413	1.00830078125	296.651921251026	0.0041180419921875	1.00738525390625
414	1.0107421875	296.676321250964	0.004161376953125	1.01043701171875
415	1.01318359375	296.700721250903	0.0042041015625	1.011962890625
416	1.015625	296.725121250841	0.00424407958984375	1.0150146484375
417	1.01806640625	296.749521250779	0.004285888671875	1.01715087890625
418	1.0205078125	296.773921250718	0.00432373046875	1.019287109375
419	1.02294921875	296.798321250656	0.00436279296875	1.02203369140625
420	1.025390625	296.822721250595	0.00439849853515625	1.024169921875
421	1.02783203125	296.847121250533	0.0044342041015625	1.0272216796875
422	1.0302734375	296.871521250471	0.004468994140625	1.02935791015625
423	1.03271484375	296.89592125041	0.00450225830078125	1.031494140625
424	1.03515625	296.920321250348	0.0045355224609375	1.03424072265625
425	1.03759765625	296.944721250287	0.00456573486328125	1.036376953125
426	1.0400390625	296.969121250225	0.00459686279296875	1.03912353515625
427	1.04248046875	296.993521250163	0.00462615966796875	1.04217529296875
428	1.044921875	297.017921250102	0.004654541015625	1.04400634765625
429	1.04736328125	297.04232125004	0.00468231201171875	1.04644775390625
430	1.0498046875	297.066721249979	0.0047088623046875	1.04827880859375
431	1.05224609375	297.091121249917	0.00473541259765625	1.051025390625
432	1.0546875	297.115521249855	0.0047601318359375	1.053466796875
433	1.05712890625	297.139921249794	0.00478515625	1.05560302734375
434	1.0595703125	297.164321249732	0.00480865478515625	1.05865478515625
435	1.06201171875	297.188721249671	0.0048321533203125	1.06170654296875
436	1.064453125	297.213121249609	0.004854736328125	1.06353759765625
437	1.06689453125	297.237521249547	0.004876708984375	1.06597900390625
438	1.0693359375	297.261921249486	0.00489837646484375	1.0687255859375
439	1.07177734375	297.286321249424	0.0049188232421875	1.070556640625
440	1.07421875	297.310721249363	0.00493988037109375	1.072998046875
441	1.07666015625	297.335121249301	0.00495941162109375	1.07574462890625
442	1.0791015625	297.359521249239	0.00497955322265625	1.07818603515625
443	1.08154296875	297.383921249178	0.0049981689453125	1.08062744140625
444	1.083984375	297.408321249116	0.00501678466796875	1.0833740234375
445	1.08642578125	297.432721249055	0.005035400390625	1.0858154296875
446	1.0888671875	297.457121248993	0.00505279541015625	1.08795166015625
447	1.09130859375	297.481521248931	0.00507080078125	1.08978271484375
448	1.09375	297.50592124887	0.00508758544921875	1.0931396484375
449	1.09619140625	297.530321248808	0.00510467529296875	1.09466552734375
450	1.0986328125	297.554721248747	0.00512115478515625	1.09771728515625
451	1.10107421875	297.579121248685	0.0051373291015625	1.10015869140625
452	1.103515625	297.603521248623	0.0051531982421875	1.10260009765625
453	1.10595703125	297.627921248562	0.00516845703125	1.10565185546875
454	1.1083984375	297.6523212485	0.00518402099609375	1.10687255859375
455	1.11083984375	297.676721248439	0.005198974609375	1.10992431640625
456	1.11328125	297.701121248377	0.00521392822265625	1.112060546875
457	1.11572265625	297.725521248315	0.005228271484375	1.11419677734375
458	1.1181640625	297.749921248254	0.00524261474609375	1.11724853515625
459	1.12060546875	297.774321248192	0.0052569580078125	1.119384765625
460	1.123046875	297.798721248131	0.00527069091796875	1.121826171875
461	1.12548828125	297.823121248069	0.00528472900390625	1.1248779296875
462	1.1279296875	297.847521248007	0.00529754638671875	1.12701416015625
463	1.13037109375	297.871921247946	0.00531097412109375	1.12945556640625
464	1.1328125	297.896321247884	0.0053240966796875	1.13189697265625
465	1.13525390625	297.920721247822	0.00533721923828125	1.1346435546875
466	1.1376953125	297.945121247761	0.0053497314453125	1.136474609375
467	1.14013671875	297.969521247699	0.00536224365234375	1.13922119140625
468	1.142578125	297.993921247638	0.005374755859375	1.141357421875
469	1.14501953125	298.018321247576	0.00538665771484375	1.143798828125
470	1.1474609375	298.042721247514	0.00539886474609375	1.146240234375
471	1.14990234375	298.067121247453	0.0054107666015625	1.1492919921875
472	1.15234375	298.091521247391	0.00542236328125	1.15142822265625
473	1.15478515625	298.11592124733	0.00543426513671875	1.1541748046875
474	1.1572265625	298.140321247268	0.005445556640625	1.1566162109375
475	1.15966796875	298.164721247206	0.00545684814453125	1.158447265625
476	1.162109375	298.189121247145	0.00546783447265625	1.16119384765625
477	1.16455078125	298.213521247083	0.0054791259765625	1.16424560546875
478	1.1669921875	298.237921247022	0.00548980712890625	1.16546630859375
479	1.16943359375	298.26232124696	0.00550079345703125	1.168212890625
480	1.171875	298.286721246898	0.005511474609375	1.170654296875
481	1.17431640625	298.311121246837	0.0055218505859375	1.1737060546875
482	1.1767578125	298.335521246775	0.00553253173828125	1.17584228515625
483	1.17919921875	298.359921246714	0.00554290771484375	1.17828369140625
484	1.181640625	298.384321246652	0.005552978515625	1.180419921875
485	1.18408203125	298.40872124659	0.00556304931640625	1.18316650390625
486	1.1865234375	298.433121246529	0.0055731201171875	1.18560791015625
487	1.18896484375	298.457521246467	0.00558319091796875	1.187744140625
488	1.19140625	298.481921246406	0.00559295654296875	1.190185546875
489	1.19384765625	298.506321246344	0.00560272216796875	1.192626953125
490	1.1962890625	298.530721246282	0.00561248779296875	1.195068359375
491	1.19873046875	298.555121246221	0.0056219482421875	1.1981201171875
492	1.201171875	298.579521246159	0.00563140869140625	1.20025634765625
493	1.19873046875	298.603921246098	0.00561676025390625	1.19781494140625
494	1.1962890625	298.628321246036	0.005601806640625	1.19537353515625
495	1.19384765625	298.652721245974	0.00558685302734375	1.19293212890625
496	1.19140625	298.677121245913	0.00557159423828125	1.18988037109375
497	1.18896484375	298.701521245851	0.0055560302734375	1.1883544921875
498	1.1865234375	298.72592124579	0.00554046630859375	1.18560791015625
499	1.18408203125	298.750321245728	0.0055242919921875	1.182861328125
500	1.181640625	298.774721245666	0.0055084228515625	1.180419921875
501	1.17919921875	298.799121245605	0.005491943359375	1.177978515625
502	1.1767578125	298.823521245543	0.00547515869140625	1.17523193359375
503	1.17431640625	298.847921245482	0.0054583740234375	1.173095703125
504	1.171875	298.87232124542	0.00544097900390625	1.17095947265625
505	1.16943359375	298.896721245358	0.00542327880859375	1.16851806640625
506	1.1669921875	298.921121245297	0.00540557861328125	1.16607666015625
507	1.16455078125	298.945521245235	0.0053875732421875	1.16363525390625
508	1.162109375	298.969921245174	0.00536865234375	1.160888671875
509	1.15966796875	298.994321245112	0.0053497314453125	1.1590576171875
510	1.1572265625	299.01872124505	0.00533050537109375	1.15631103515625
511	1.15478515625	299.043121244989	0.0053106689453125	1.15386962890625
512	1.15234375	299.067521244927	0.00529083251953125	1.151123046875
513	1.14990234375	299.091921244865	0.00527008056640625	1.14898681640625
514	1.1474609375	299.116321244804	0.00524932861328125	1.14593505859375
515	1.14501953125	299.140721244742	0.0052276611328125	1.143798828125
516	1.142578125	299.165121244681	0.00520599365234375	1.14166259765625
517	1.14013671875	299.189521244619	0.00518310546875	1.13861083984375
518	1.1376953125	299.213921244557	0.005159912109375	1.136474609375
519	1.13525390625	299.238321244496	0.00513641357421875	1.13372802734375
520	1.1328125	299.262721244434	0.00511199951171875	1.13128662109375
521	1.13037109375	299.287121244373	0.00508697509765625	1.129150390625
522	1.1279296875	299.311521244311	0.00506072998046875	1.126708984375
523	1.12548828125	299.335921244249	0.0050341796875	1.12457275390625
524	1.123046875	299.360321244188	0.00500701904296875	1.1224365234375
525	1.12060546875	299.384721244126	0.00497894287109375	1.119384765625
526	1.1181640625	299.409121244065	0.0049493408203125	1.11724853515625
527	1.11572265625	299.433521244003	0.0049188232421875	1.11480712890625
528	1.11328125	299.457921243941	0.0048876953125	1.11236572265625
529	1.11083984375	299.48232124388	0.00485504150390625	1.109619140625
530	1.1083984375	299.506721243818	0.00482147216796875	1.10748291015625
531	1.10595703125	299.531121243757	0.00478607177734375	1.10504150390625
532	1.103515625	299.555521243695	0.00474945068359375	1.10260009765625
533	1.10107421875	299.579921243633	0.00471160888671875	1.10015869140625
534	1.0986328125	299.604321243572	0.004671630859375	1.09710693359375
535	1.09619140625	299.62872124351	0.004630126953125	1.09527587890625
536	1.09375	299.653121243449	0.004586181640625	1.09344482421875
537	1.09130859375	299.677521243387	0.00454132080078125	1.090087890625
538	1.0888671875	299.701921243325	0.00449371337890625	1.08795166015625
539	1.08642578125	299.726321243264	0.0044439697265625	1.0858154296875
540	1.083984375	299.750721243202	0.0043914794921875	1.0833740234375
541	1.08154296875	299.775121243141	0.00433685302734375	1.08062744140625
542	1.0791015625	299.799521243079	0.004281005859375	1.07818603515625
543	1.07666015625	299.823921243017	0.00422210693359375	1.07574462890625
544	1.07421875	299.848321242956	0.004161376953125	1.0736083984375
545	1.07177734375	299.872721242894	0.004097900390625	1.07086181640625
546	1.0693359375	299.897121242833	0.0040338134765625	1.06842041015625
547	1.06689453125	299.921521242771	0.003968505859375	1.0662841796875
548	1.064453125	299.945921242709	0.0039013671875	1.06353759765625
549	1.06201171875	299.970321242648	0.0038336181640625	1.060791015625
550	1.0595703125	299.994721242586	0.0037646484375	1.05926513671875
551	1.05712890625	300.019121242525	0.0036956787109375	1.0565185546875
552	1.0546875	300.043521242463	0.003626708984375	1.05377197265625
553	1.05224609375	300.067921242401	0.00355804443359375	1.05133056640625
554	1.0498046875	300.09232124234	0.00348876953125	1.04888916015625
555	1.04736328125	300.116721242278	0.00342041015625	1.04644775390625
556	1.044921875	300.141121242217	0.0033538818359375	1.04400634765625
557	1.04248046875	300.165521242155	0.00328582763671875	1.041259765625
558	1.0400390625	300.189921242093	0.00322052001953125	1.03851318359375
559	1.03759765625	300.214321242032	0.00315338134765625	1.03668212890625
560	1.03515625	300.23872124197	0.003089599609375	1.03424072265625
561	1.03271484375	300.263121241908	0.00302520751953125	1.031494140625
562	1.0302734375	300.287521241847	0.00296173095703125	1.02935791015625
563	1.02783203125	300.311921241785	0.0028997802734375	1.026611328125
564	1.025390625	300.336321241724	0.0028369140625	1.024169921875
565	1.02294921875	300.360721241662	0.002777099609375	1.021728515625
566	1.0205078125	300.3851212416	0.00271697998046875	1.01959228515625
567	1.01806640625	300.409521241539	0.0026593017578125	1.01654052734375
568	1.015625	300.433921241477	0.00260101318359375	1.01470947265625
569	1.01318359375	300.458321241416	0.00254425048828125	1.0125732421875
570	1.0107421875	300.482721241354	0.00248809814453125	1.00982666015625
571	1.00830078125	300.507121241292	0.00243408203125	1.0076904296875
572	1.005859375	300.531521241231	0.0023809814453125	1.0052490234375
573	1.00341796875	300.555921241169	0.00232666015625	1.0028076171875
574	1.0009765625	300.580321241108	0.0022760009765625	1.0003662109375
575	0.99853515625	300.604721241046	0.00222442626953125	0.99761962890625
576	0.99609375	300.629121240984	0.00217498779296875	0.994873046875
577	0.99365234375	300.653521240923	0.002125244140625	0.9930419921875
578	0.9912109375	300.677921240861	0.0020770263671875	0.99029541015625
579	0.98876953125	300.7023212408	0.00203033447265625	0.9881591796875
580	0.986328125	300.726721240738	0.00198486328125	0.985107421875
581	0.98388671875	300.751121240676	0.00194000244140625	0.98297119140625
582	0.9814453125	300.775521240615	0.001895751953125	0.9808349609375
583	0.97900390625	300.799921240553	0.00185333251953125	0.977783203125
584	0.9765625	300.824321240492	0.00181121826171875	0.975341796875
585	0.97412109375	300.84872124043	0.0017694091796875	0.9735107421875
586	0.9716796875	300.873121240368	0.001728515625	0.97015380859375
587	0.96923828125	300.897521240307	0.0016888427734375	0.968017578125
588	0.966796875	300.921921240245	0.00165008544921875	0.96588134765625
589	0.96435546875	300.946321240184	0.00161285400390625	0.96343994140625
590	0.9619140625	300.970721240122	0.001578369140625	0.960693359375
591	0.95947265625	300.99512124006	0.001541748046875	0.95855712890625
592	0.95703125	301.019521239999	0.0015057373046875	0.955810546875
593	0.95458984375	301.043921239937	0.001473388671875	0.9539794921875
594	0.9521484375	301.068321239876	0.00143951416015625	0.95123291015625
595	0.94970703125	301.092721239814	0.00140899658203125	0.9490966796875
596	0.947265625	301.117121239752	0.00137542724609375	0.9466552734375
597	0.94482421875	301.141521239691	0.00134674072265625	0.94390869140625
598	0.9423828125	301.165921239629	0.00131591796875	0.9417724609375
599	0.93994140625	301.190321239568	0.00128692626953125	0.9393310546875
600	0.9375	301.214721239506	0.00125823974609375	0.936279296875
601	0.93505859375	301.239121239444	0.0012298583984375	0.93414306640625
602	0.9326171875	301.263521239383	0.001202392578125	0.93170166015625
603	0.93017578125	301.287921239321	0.0011761474609375	0.928955078125
604	0.927734375	301.31232123926	0.0011505126953125	0.92681884765625
605	0.92529296875	301.336721239198	0.00112762451171875	0.924072265625
606	0.9228515625	301.361121239136	0.00110260009765625	0.92193603515625
607	0.92041015625	301.385521239075	0.0010797119140625	0.91949462890625
608	0.91796875	301.409921239013	0.00105682373046875	0.916748046875
609	0.91552734375	301.434321238951	0.00103546142578125	0.914306640625
610	0.9130859375	301.45872123889	0.00101318359375	0.9124755859375
611	0.91064453125	301.483121238828	0.00099273681640625	0.909423828125
612	0.908203125	301.507521238767	0.000972900390625	0.906982421875
613	0.90576171875	301.531921238705	0.00095367431640625	0.904541015625
614	0.9033203125	301.556321238643	0.0009326171875	0.9027099609375
615	0.90087890625	301.580721238582	0.00091400146484375	0.89996337890625
616	0.8984375	301.60512123852	0.00089569091796875	0.89752197265625
617	0.89599609375	301.629521238459	0.00087890625	0.89508056640625
618	0.8935546875	301.653921238397	0.00086029052734375	0.89263916015625
619	0.89111328125	301.678321238335	0.0008441162109375	0.89019775390625
620	0.888671875	301.702721238274	0.00082733154296875	0.88775634765625
621	0.88623046875	301.727121238212	0.00081146240234375	0.88531494140625
622	0.8837890625	301.751521238151	0.000794677734375	0.8837890625
623	0.88134765625	301.775921238089	0.000780029296875	0.8807373046875
624	0.87890625	301.800321238027	0.00076568603515625	0.87799072265625
625	0.87646484375	301.824721237966	0.00075103759765625	0.8758544921875
626	0.8740234375	301.849121237904	0.0007373046875	0.872802734375
627	0.87158203125	301.873521237843	0.0007220458984375	0.87066650390625
628	0.869140625	301.897921237781	0.0007098388671875	0.86822509765625
629	0.86669921875	301.922321237719	0.00069580078125	0.865478515625
630	0.8642578125	301.946721237658	0.00068206787109375	0.8636474609375
631	0.86181640625	301.971121237596	0.00067047119140625	0.86090087890625
632	0.859375	301.995521237535	0.00065704345703125	0.8587646484375
633	0.85693359375	302.019921237473	0.00064544677734375	0.85601806640625
634	0.8544921875	302.044321237411	0.00063323974609375	0.8538818359375
635	0.85205078125	302.06872123735	0.00062347412109375	0.8514404296875
636	0.849609375	302.093121237288	0.00061187744140625	0.84869384765625
637	0.84716796875	302.117521237227	0.00060028076171875	0.84625244140625
638	0.8447265625	302.141921237165	0.000589599609375	0.8441162109375
639	0.84228515625	302.166321237103	0.000579833984375	0.841064453125
640	0.83984375	302.190721237042	0.00056976318359375	0.8392333984375
641	0.83740234375	302.21512123698	0.00055938720703125	0.8367919921875
642	0.8349609375	302.239521236919	0.00054962158203125	0.833740234375
643	0.83251953125	302.263921236857	0.000538330078125	0.831298828125
644	0.830078125	302.288321236795	0.0005303955078125	0.82916259765625
645	0.82763671875	302.312721236734	0.00052093505859375	0.8270263671875
646	0.8251953125	302.337121236672	0.00051116943359375	0.823974609375
647	0.82275390625	302.361521236611	0.00050384521484375	0.8221435546875
648	0.8203125	302.385921236549	0.0004932861328125	0.81939697265625
649	0.81787109375	302.410321236487	0.000486175537109375	0.81695556640625
650	0.8154296875	302.434721236426	0.0004764404296875	0.8148193359375
651	0.81298828125	302.459121236364	0.000468231201171875	0.81207275390625
652	0.810546875	302.483521236303	0.00046002197265625	0.8099365234375
653	0.80810546875	302.507921236241	0.000451080322265625	0.806884765625
654	0.8056640625	302.532321236179	0.000443450927734375	0.8050537109375
655	0.80322265625	302.556721236118	0.0004354248046875	0.802001953125
656	0.80078125	302.581121236056	0.00042767333984375	0.8001708984375
657	0.79833984375	302.605521235995	0.000420013427734375	0.797119140625
658	0.7958984375	302.629921235933	0.00041400146484375	0.79498291015625
659	0.79345703125	302.654321235871	0.000406005859375	0.79254150390625
660	0.791015625	302.67872123581	0.000398956298828125	0.789794921875
661	0.78857421875	302.703121235748	0.000392333984375	0.7879638671875
662	0.7861328125	302.727521235686	0.000384857177734375	0.78521728515625
663	0.78369140625	302.751921235625	0.000378875732421875	0.7830810546875
664	0.78125	302.776321235563	0.00037109375	0.78033447265625
665	0.77880859375	302.800721235502	0.000364776611328125	0.77789306640625
666	0.7763671875	302.82512123544	0.000358306884765625	0.77545166015625
667	0.77392578125	302.849521235378	0.0003519287109375	0.7733154296875
668	0.771484375	302.873921235317	0.000346466064453125	0.770263671875
669	0.76904296875	302.898321235255	0.00033929443359375	0.7684326171875
670	0.7666015625	302.922721235194	0.000333831787109375	0.765380859375
671	0.76416015625	302.947121235132	0.000326873779296875	0.76324462890625
672	0.76171875	302.97152123507	0.0003218994140625	0.76080322265625
673	0.75927734375	302.995921235009	0.000315338134765625	0.75897216796875
674	0.7568359375	303.020321234947	0.000310028076171875	0.75592041015625
675	0.75439453125	303.044721234886	0.00030523681640625	0.75439453125
676	0.751953125	303.069121234824	0.0002994384765625	0.7513427734375
677	0.74951171875	303.093521234762	0.00029498291015625	0.749237060546875
678	0.7470703125	303.117921234701	0.000288055419921875	0.746826171875
679	0.74462890625	303.142321234639	0.000282928466796875	0.744415283203125
680	0.7421875	303.166721234578	0.000277923583984375	0.741973876953125
681	0.73974609375	303.191121234516	0.000273834228515625	0.739532470703125
682	0.7373046875	303.215521234454	0.000269134521484375	0.737091064453125
683	0.73486328125	303.239921234393	0.0002633056640625	0.734588623046875
684	0.732421875	303.264321234331	0.00025946044921875	0.732208251953125
685	0.72998046875	303.28872123427	0.000253692626953125	0.729736328125
686	0.7275390625	303.313121234208	0.000249725341796875	0.72735595703125
687	0.72509765625	303.337521234146	0.000244598388671875	0.724853515625
688	0.72265625	303.361921234085	0.0002392578125	0.722442626953125
689	0.72021484375	303.386321234023	0.000234588623046875	0.719940185546875
690	0.7177734375	303.410721233962	0.000231048583984375	0.717620849609375
691	0.71533203125	303.4351212339	0.000227691650390625	0.715179443359375
692	0.712890625	303.459521233838	0.000222015380859375	0.712677001953125
693	0.71044921875	303.483921233777	0.000218170166015625	0.71026611328125
694	0.7080078125	303.508321233715	0.000213623046875	0.707855224609375
695	0.70556640625	303.532721233654	0.000209930419921875	0.70538330078125
696	0.703125	303.557121233592	0.000206085205078125	0.702911376953125
697	0.70068359375	303.58152123353	0.000202484130859375	0.70050048828125
698	0.6982421875	303.605921233469	0.0001982421875	0.698028564453125
699	0.69580078125	303.630321233407	0.000195159912109375	0.695587158203125
700	0.693359375	303.654721233346	0.000192138671875	0.693206787109375
701	0.69091796875	303.679121233284	0.000186859130859375	0.690765380859375
702	0.6884765625	303.703521233222	0.00018353271484375	0.688262939453125
703	0.68603515625	303.727921233161	0.000179351806640625	0.6859130859375
704	0.68359375	303.752321233099	0.00017596435546875	0.68341064453125
705	0.68115234375	303.776721233038	0.000173248291015625	0.6810302734375
706	0.6787109375	303.801121232976	0.000169708251953125	0.678558349609375
707	0.67626953125	303.825521232914	0.0001688232421875	0.67608642578125
708	0.673828125	303.849921232853	0.00016473388671875	0.6737060546875
709	0.67138671875	303.874321232791	0.000162200927734375	0.6712646484375
710	0.6689453125	303.898721232729	0.000156494140625	0.6688232421875
711	0.66650390625	303.923121232668	0.00015301513671875	0.6663818359375
712	0.6640625	303.947521232606	0.000150360107421875	0.6639404296875
713	0.66162109375	303.971921232545	0.000147705078125	0.6614990234375
714	0.6591796875	303.996321232483	0.000144775390625	0.6590576171875
715	0.65673828125	304.020721232421	0.000142852783203125	0.6566162109375
716	0.654296875	304.04512123236	0.00014031982421875	0.6541748046875
717	0.65185546875	304.069521232298	0.000136444091796875	0.651763916015625
718	0.6494140625	304.093921232237	0.000134429931640625	0.649322509765625
719	0.64697265625	304.118321232175	0.000131561279296875	0.646881103515625
720	0.64453125	304.142721232113	0.000128265380859375	0.6444091796875
721	0.64208984375	304.167121232052	0.000126556396484375	0.6419677734375
722	0.6396484375	304.19152123199	0.00012335205078125	0.6395263671875
723	0.63720703125	304.215921231929	0.000121856689453125	0.6370849609375
724	0.634765625	304.240321231867	0.000119110107421875	0.6346435546875
725	0.63232421875	304.264721231805	0.000116912841796875	0.6322021484375
726	0.6298828125	304.289121231744	0.00011474609375	0.6297607421875
727	0.62744140625	304.313521231682	0.00011273193359375	0.6273193359375
728	0.625	304.337921231621	0.00011102294921875	0.6248779296875
729	0.62255859375	304.362321231559	0.000107513427734375	0.622406005859375
730	0.6201171875	304.386721231497	0.000105560302734375	0.62005615234375
731	0.61767578125	304.411121231436	0.000102996826171875	0.617645263671875
732	0.615234375	304.435521231374	0.00010113525390625	0.61517333984375
733	0.61279296875	304.459921231313	9.9334716796875E-05	0.6126708984375
734	0.6103515625	304.484321231251	9.771728515625E-05	0.610260009765625
735	0.60791015625	304.508721231189	9.5611572265625E-05	0.607879638671875
736	0.60546875	304.533121231128	9.2681884765625E-05	0.605377197265625
737	0.60302734375	304.557521231066	9.259033203125E-05	0.60296630859375
738	0.6005859375	304.581921231005	8.984375E-05	0.600311279296875
739	0.59814453125	304.606321230943	8.795166015625E-05	0.597930908203125
740	0.595703125	304.630721230881	8.70361328125E-05	0.595489501953125
741	0.59326171875	304.65512123082	8.4716796875E-05	0.593109130859375
742	0.5908203125	304.679521230758	8.3892822265625E-05	0.590667724609375
743	0.58837890625	304.703921230697	8.087158203125E-05	0.58819580078125
744	0.5859375	304.728321230635	8.0352783203125E-05	0.585723876953125
745	0.58349609375	304.752721230573	7.8216552734375E-05	0.58331298828125
746	0.5810546875	304.777121230512	7.7362060546875E-05	0.580810546875
747	0.57861328125	304.80152123045	7.4554443359375E-05	0.578460693359375
748	0.576171875	304.825921230389	7.3089599609375E-05	0.575958251953125
749	0.57373046875	304.850321230327	7.2723388671875E-05	0.573516845703125
750	0.5712890625	304.874721230265	7.1624755859375E-05	0.57110595703125
751	0.56884765625	304.899121230204	6.964111328125E-05	0.56866455078125
752	0.56640625	304.923521230142	6.744384765625E-05	0.56622314453125
753	0.56396484375	304.947921230081	6.6741943359375E-05	0.563812255859375
754	0.5615234375	304.972321230019	6.45751953125E-05	0.56134033203125
755	0.55908203125	304.996721229957	6.3262939453125E-05	0.558929443359375
756	0.556640625	305.021121229896	6.1309814453125E-05	0.556488037109375
757	0.55419921875	305.045521229834	6.0150146484375E-05	0.554107666015625
758	0.5517578125	305.069921229772	5.92041015625E-05	0.551605224609375
759	0.54931640625	305.094321229711	5.7891845703125E-05	0.549224853515625
760	0.546875	305.118721229649	5.780029296875E-05	0.546722412109375
761	0.54443359375	305.143121229588	5.5908203125E-05	0.54425048828125
762	0.5419921875	305.167521229526	5.474853515625E-05	0.5418701171875
763	0.53955078125	305.191921229464	5.3863525390625E-05	0.539398193359375
764	0.537109375	305.216321229403	5.2642822265625E-05	0.537017822265625
765	0.53466796875	305.240721229341	5.2215576171875E-05	0.5345458984375
766	0.5322265625	305.26512122928	5.0537109375E-05	0.5321044921875
767	0.52978515625	305.289521229218	4.962158203125E-05	0.5296630859375
768	0.52734375	305.313921229156	4.7906494140625E-05	0.527252197265625
769	0.52490234375	305.338321229095	4.80743408203125E-05	0.52484130859375
770	0.5224609375	305.362721229033	4.65087890625E-05	0.5223388671875
771	0.52001953125	305.387121228972	4.5721435546875E-05	0.519866943359375
772	0.517578125	305.41152122891	4.55474853515625E-05	0.5174560546875
773	0.51513671875	305.435921228848	4.41680908203125E-05	0.5150146484375
774	0.5126953125	305.460321228787	4.37225341796875E-05	0.512603759765625
775	0.51025390625	305.484721228725	4.2010498046875E-05	0.510162353515625
776	0.5078125	305.509121228664	4.22119140625E-05	0.50775146484375
777	0.50537109375	305.533521228602	4.06768798828125E-05	0.505218505859375
778	0.5029296875	305.55792122854	3.92059326171875E-05	0.502838134765625
779	0.50048828125	305.582321228479	3.80279541015625E-05	0.500396728515625
780	0.498046875	305.606721228417	3.64288330078125E-05	0.497955322265625
781	0.49560546875	305.631121228356	3.64776611328125E-05	0.4954833984375
782	0.4931640625	305.655521228294	3.52081298828125E-05	0.493072509765625
783	0.49072265625	305.679921228232	3.5162353515625E-05	0.490570068359375
784	0.48828125	305.704321228171	3.35357666015625E-05	0.488189697265625
785	0.48583984375	305.728721228109	3.30108642578125E-05	0.485687255859375
786	0.4833984375	305.753121228048	3.248291015625E-05	0.4832763671875
787	0.48095703125	305.777521227986	3.19305419921875E-05	0.4808349609375
788	0.478515625	305.801921227924	3.19854736328125E-05	0.478363037109375
789	0.47607421875	305.826321227863	3.0230712890625E-05	0.4759521484375
790	0.4736328125	305.850721227801	3.087158203125E-05	0.473602294921875
791	0.47119140625	305.87512122774	3.0511474609375E-05	0.4710693359375
792	0.46875	305.899521227678	2.9595947265625E-05	0.4686279296875
793	0.46630859375	305.923921227616	2.84637451171875E-05	0.466278076171875
794	0.4638671875	305.948321227555	2.75604248046875E-05	0.463775634765625
795	0.46142578125	305.972721227493	2.7447509765625E-05	0.46136474609375
796	0.458984375	305.997121227432	2.55828857421875E-05	0.458953857421875
797	0.45654296875	306.02152122737	2.7178955078125E-05	0.456451416015625
798	0.4541015625	306.045921227308	2.61383056640625E-05	0.45404052734375
799	0.45166015625	306.070321227247	2.5079345703125E-05	0.45159912109375
800	0.44921875	306.094721227185	2.40264892578125E-05	0.449127197265625
801	0.44677734375	306.119121227124	2.31658935546875E-05	0.44671630859375
802	0.4443359375	306.143521227062	2.38861083984375E-05	0.444305419921875
803	0.44189453125	306.167921227	2.1820068359375E-05	0.44183349609375
804	0.439453125	306.192321226939	2.257080078125E-05	0.439422607421875
805	0.43701171875	306.216721226877	2.186279296875E-05	0.437042236328125
806	0.4345703125	306.241121226815	2.1563720703125E-05	0.4345703125
807	0.43212890625	306.265521226754	2.07061767578125E-05	0.43212890625
808	0.4296875	306.289921226692	2.04681396484375E-05	0.429656982421875
809	0.42724609375	306.314321226631	2.015380859375E-05	0.427215576171875
810	0.4248046875	306.338721226569	1.93878173828125E-05	0.424774169921875
811	0.42236328125	306.363121226507	1.91070556640625E-05	0.42230224609375
812	0.419921875	306.387521226446	1.84844970703125E-05	0.419891357421875
813	0.41748046875	306.411921226384	1.7864990234375E-05	0.417449951171875
814	0.4150390625	306.436321226323	1.75018310546875E-05	0.41497802734375
815	0.41259765625	306.460721226261	1.6888427734375E-05	0.41259765625
816	0.41015625	306.485121226199	1.64154052734375E-05	0.410064697265625
817	0.40771484375	306.509521226138	1.57073974609375E-05	0.40765380859375
818	0.4052734375	306.533921226076	1.5887451171875E-05	0.405242919921875
819	0.40283203125	306.558321226015	1.42730712890625E-05	0.402801513671875
820	0.400390625	306.582721225953	1.43829345703125E-05	0.400390625
821	0.39794921875	306.607121225891	1.36749267578125E-05	0.397979736328125
822	0.3955078125	306.63152122583	1.3531494140625E-05	0.395477294921875
823	0.39306640625	306.655921225768	1.463623046875E-05	0.393035888671875
824	0.390625	306.680321225707	1.2933349609375E-05	0.39056396484375
825	0.38818359375	306.704721225645	1.290283203125E-05	0.38818359375
826	0.3857421875	306.729121225583	1.168212890625E-05	0.38568115234375
827	0.38330078125	306.753521225522	1.13189697265625E-05	0.383331298828125
828	0.380859375	306.77792122546	1.1376953125E-05	0.38079833984375
829	0.37841796875	306.802321225399	1.1181640625E-05	0.378387451171875
830	0.3759765625	306.826721225337	9.912109375E-06	0.376007080078125
831	0.37353515625	306.851121225275	9.0057373046875E-06	0.37347412109375
832	0.37109375	306.875521225214	9.228515625E-06	0.37109375
833	0.36865234375	306.899921225152	9.04541015625E-06	0.36865234375
834	0.3662109375	306.924321225091	9.588623046875E-06	0.3662109375
835	0.36376953125	306.948721225029	8.685302734375E-06	0.363555908203125
836	0.361328125	306.973121224967	8.1939697265625E-06	0.3612060546875
837	0.35888671875	306.997521224906	7.5927734375E-06	0.358734130859375
838	0.3564453125	307.021921224844	6.9732666015625E-06	0.356353759765625
839	0.35400390625	307.046321224783	6.99462890625E-06	0.353851318359375
840	0.3515625	307.070721224721	5.62744140625E-06	0.351470947265625
841	0.34912109375	307.095121224659	6.3812255859375E-06	0.349029541015625
842	0.3466796875	307.119521224598	5.2947998046875E-06	0.346588134765625
843	0.34423828125	307.143921224536	5.0689697265625E-06	0.3441162109375
844	0.341796875	307.168321224475	4.7943115234375E-06	0.3416748046875
845	0.33935546875	307.192721224413	4.26025390625E-06	0.339263916015625
846	0.3369140625	307.217121224351	4.1900634765625E-06	0.3367919921875
847	0.33447265625	307.24152122429	3.3544921875E-06	0.33441162109375
848	0.33203125	307.265921224228	3.934326171875E-06	0.3319091796875
849	0.32958984375	307.290321224167	3.0047607421875E-06	0.3294677734375
850	0.3271484375	307.314721224105	3.34747314453125E-06	0.3271484375
851	0.32470703125	307.339121224043	2.33428955078125E-06	0.32464599609375
852	0.322265625	307.363521223982	2.4749755859375E-06	0.322265625
853	0.31982421875	307.38792122392	1.85821533203125E-06	0.31982421875
854	0.3173828125	307.412321223858	1.28692626953125E-06	0.3173828125
855	0.31494140625	307.436721223797	2.017822265625E-06	0.314910888671875
856	0.3125	307.461121223735	3.1524658203125E-07	0.312530517578125
857	0.31005859375	307.485521223674	1.03973388671875E-06	0.310028076171875
858	0.3076171875	307.509921223612	3.521728515625E-07	0.3076171875
859	0.30517578125	307.53432122355	-4.608154296875E-08	0.305206298828125
860	0.302734375	307.558721223489	-4.5013427734375E-07	0.302764892578125
861	0.30029296875	307.583121223427	-1.19354248046875E-06	0.30035400390625
862	0.2978515625	307.607521223366	-8.87451171875E-07	0.29791259765625
863	0.29541015625	307.631921223304	-1.90643310546875E-06	0.29547119140625
864	0.29296875	307.656321223242	-1.23779296875E-06	0.292999267578125
865	0.29052734375	307.680721223181	-2.17010498046875E-06	0.290557861328125
866	0.2880859375	307.705121223119	-2.30194091796875E-06	0.28814697265625
867	0.28564453125	307.729521223058	-2.78656005859375E-06	0.2857666015625
868	0.283203125	307.753921222996	-3.62945556640625E-06	0.28326416015625
869	0.28076171875	307.778321222934	-3.21746826171875E-06	0.280853271484375
870	0.2783203125	307.802721222873	-4.08172607421875E-06	0.27838134765625
871	0.27587890625	307.827121222811	-3.68499755859375E-06	0.27593994140625
872	0.2734375	307.85152122275	-4.583740234375E-06	0.273529052734375
873	0.27099609375	307.875921222688	-4.84619140625E-06	0.271026611328125
874	0.2685546875	307.900321222626	-4.50439453125E-06	0.26861572265625
875	0.26611328125	307.924721222565	-5.523681640625E-06	0.26617431640625
876	0.263671875	307.949121222503	-5.1300048828125E-06	0.26373291015625
877	0.26123046875	307.973521222442	-6.787109375E-06	0.261260986328125
878	0.2587890625	307.99792122238	-5.8685302734375E-06	0.258880615234375
879	0.25634765625	308.022321222318	-6.7779541015625E-06	0.256378173828125
880	0.25390625	308.046721222257	-6.9793701171875E-06	0.253997802734375
881	0.25146484375	308.071121222195	-7.5653076171875E-06	0.251556396484375
882	0.2490234375	308.095521222134	-8.1573486328125E-06	0.2491455078125
883	0.24658203125	308.119921222072	-7.43408203125E-06	0.246612548828125
884	0.244140625	308.14432122201	-8.5693359375E-06	0.244171142578125
885	0.24169921875	308.168721221949	-8.0108642578125E-06	0.24176025390625
886	0.2392578125	308.193121221887	-9.3994140625E-06	0.239288330078125
887	0.23681640625	308.217521221826	-9.2071533203125E-06	0.2369384765625
888	0.234375	308.241921221764	-9.613037109375E-06	0.2344970703125
889	0.23193359375	308.266321221702	-9.8724365234375E-06	0.232147216796875
890	0.2294921875	308.290721221641	-9.5916748046875E-06	0.229583740234375
891	0.22705078125	308.315121221579	-1.0205078125E-05	0.227203369140625
892	0.224609375	308.339521221518	-9.710693359375E-06	0.224761962890625
893	0.22216796875	308.363921221456	-1.07086181640625E-05	0.22235107421875
894	0.2197265625	308.388321221394	-1.04766845703125E-05	0.219879150390625
895	0.21728515625	308.412721221333	-1.129150390625E-05	0.217437744140625
896	0.21484375	308.437121221271	-1.1944580078125E-05	0.21502685546875
897	0.21240234375	308.46152122121	-1.15325927734375E-05	0.21258544921875
898	0.2099609375	308.485921221148	-1.236572265625E-05	0.21014404296875
899	0.20751953125	308.510321221086	-1.1590576171875E-05	0.207763671875
900	0.205078125	308.534721221025	-1.29669189453125E-05	0.2052001953125
901	0.20263671875	308.559121220963	-1.251220703125E-05	0.20281982421875
902	0.2001953125	308.583521220902	-1.33453369140625E-05	0.200347900390625
903	0.19775390625	308.60792122084	-1.346435546875E-05	0.197967529296875
904	0.1953125	308.632321220778	-1.383056640625E-05	0.195526123046875
905	0.19287109375	308.656721220717	-1.46270751953125E-05	0.193023681640625
906	0.1904296875	308.681121220655	-1.4068603515625E-05	0.190673828125
907	0.18798828125	308.705521220593	-1.50054931640625E-05	0.188201904296875
908	0.185546875	308.729921220532	-1.47613525390625E-05	0.185760498046875
909	0.18310546875	308.75432122047	-1.58477783203125E-05	0.183319091796875
910	0.1806640625	308.778721220409	-1.58416748046875E-05	0.180908203125
911	0.17822265625	308.803121220347	-1.6143798828125E-05	0.178436279296875
912	0.17578125	308.827521220285	-1.712646484375E-05	0.176025390625
913	0.17333984375	308.851921220224	-1.67572021484375E-05	0.173583984375
914	0.1708984375	308.876321220162	-1.773681640625E-05	0.171142578125
915	0.16845703125	308.900721220101	-1.73187255859375E-05	0.168701171875
916	0.166015625	308.925121220039	-1.817626953125E-05	0.166259765625
917	0.16357421875	308.949521219977	-1.78802490234375E-05	0.163909912109375
918	0.1611328125	308.973921219916	-1.85211181640625E-05	0.16143798828125
919	0.15869140625	308.998321219854	-1.9256591796875E-05	0.15899658203125
920	0.15625	309.022721219793	-1.88323974609375E-05	0.15655517578125
921	0.15380859375	309.047121219731	-2.003173828125E-05	0.15411376953125
922	0.1513671875	309.071521219669	-1.96258544921875E-05	0.151641845703125
923	0.14892578125	309.095921219608	-2.0574951171875E-05	0.149169921875
924	0.146484375	309.120321219546	-2.0440673828125E-05	0.14678955078125
925	0.14404296875	309.144721219485	-2.0751953125E-05	0.144287109375
926	0.1416015625	309.169121219423	-2.10601806640625E-05	0.1419677734375
927	0.13916015625	309.193521219361	-2.083740234375E-05	0.139495849609375
928	0.13671875	309.2179212193	-2.19085693359375E-05	0.13702392578125
929	0.13427734375	309.242321219238	-2.11639404296875E-05	0.1346435546875
930	0.1318359375	309.266721219177	-2.232666015625E-05	0.132171630859375
931	0.12939453125	309.291121219115	-2.19085693359375E-05	0.129730224609375
932	0.126953125	309.315521219053	-2.25982666015625E-05	0.127288818359375
933	0.12451171875	309.339921218992	-2.3199462890625E-05	0.124908447265625
934	0.1220703125	309.36432121893	-2.2979736328125E-05	0.1224365234375
935	0.11962890625	309.388721218869	-2.3822021484375E-05	0.120025634765625
936	0.1171875	309.413121218807	-2.3291015625E-05	0.1175537109375
937	0.11474609375	309.437521218745	-2.44293212890625E-05	0.11517333984375
938	0.1123046875	309.461921218684	-2.410888671875E-05	0.112701416015625
939	0.10986328125	309.486321218622	-2.486572265625E-05	0.110198974609375
940	0.107421875	309.510721218561	-2.5054931640625E-05	0.1077880859375
941	0.10498046875	309.535121218499	-2.52716064453125E-05	0.1053466796875
942	0.1025390625	309.559521218437	-2.606201171875E-05	0.10296630859375
943	0.10009765625	309.583921218376	-2.56317138671875E-05	0.1005859375
944	0.09765625	309.608321218314	-2.68768310546875E-05	0.09808349609375
945	0.09521484375	309.632721218253	-2.63031005859375E-05	0.095672607421875
946	0.0927734375	309.657121218191	-2.73223876953125E-05	0.093231201171875
947	0.09033203125	309.681521218129	-2.733154296875E-05	0.090789794921875
948	0.087890625	309.705921218068	-2.77130126953125E-05	0.08831787109375
949	0.08544921875	309.730321218006	-2.83203125E-05	0.085968017578125
950	0.0830078125	309.754721217945	-2.79571533203125E-05	0.083526611328125
951	0.08056640625	309.779121217883	-2.92022705078125E-05	0.0810546875
952	0.078125	309.803521217821	-2.86590576171875E-05	0.078643798828125
953	0.07568359375	309.82792121776	-2.9583740234375E-05	0.076202392578125
954	0.0732421875	309.852321217698	-2.940673828125E-05	0.07379150390625
955	0.07080078125	309.876721217636	-2.96630859375E-05	0.07135009765625
956	0.068359375	309.901121217575	-3.028564453125E-05	0.068878173828125
957	0.06591796875	309.925521217513	-3.00628662109375E-05	0.066009521484375
958	0.0634765625	309.949921217452	-3.09967041015625E-05	0.0635986328125
959	0.06103515625	309.97432121739	-3.0303955078125E-05	0.0611572265625
960	0.05859375	309.998721217328	-3.140869140625E-05	0.05859375
961	0.05615234375	310.023121217267	-3.12286376953125E-05	0.056243896484375
962	0.0537109375	310.047521217205	-3.16619873046875E-05	0.053802490234375
963	0.05126953125	310.071921217144	-3.20037841796875E-05	0.051422119140625
964	0.048828125	310.096321217082	-3.18450927734375E-05	0.0489593505859375
965	0.04638671875	310.12072121702	-3.292236328125E-05	0.0465576171875
966	0.0439453125	310.145121216959	-3.21868896484375E-05	0.0441009521484375
967	0.04150390625	310.169521216897	-3.32763671875E-05	0.0416656494140625
968	0.0390625	310.193921216836	-3.2818603515625E-05	0.0392364501953125
969	0.03662109375	310.218321216774	-3.36273193359375E-05	0.0367889404296875
970	0.0341796875	310.242721216712	-3.3978271484375E-05	0.0343231201171875
971	0.03173828125	310.267121216651	-3.397216796875E-05	0.031884765625
972	0.029296875	310.291521216589	-3.48419189453125E-05	0.029443359375
973	0.02685546875	310.315921216528	-3.4320068359375E-05	0.0269989013671875
974	0.0244140625	310.340321216466	-3.55804443359375E-05	0.024560546875
975	0.02197265625	310.364721216404	-3.50860595703125E-05	0.022113037109375
976	0.01953125	310.389121216343	-3.58306884765625E-05	0.019683837890625
977	0.01708984375	310.413521216281	-3.59832763671875E-05	0.017242431640625
978	0.0146484375	310.43792121622	-3.6236572265625E-05	0.0148162841796875
979	0.01220703125	310.462321216158	-3.71063232421875E-05	0.012359619140625
980	0.009765625	310.486721216096	-3.6669921875E-05	0.0099334716796875
981	0.00732421875	310.511121216035	-3.779296875E-05	0.00748291015624999
982	0.0048828125	310.535521215973	-3.7200927734375E-05	0.0050506591796875
983	0.00244140625	310.559921215912	-3.82598876953125E-05	0.0025970458984375
984	0	310.58432121585	-3.83026123046875E-05	0.000140380859374997
985	0.00244140625	310.608721215788	-3.79608154296875E-05	0.00258483886718749
986	0.0048828125	310.633121215727	-3.79669189453125E-05	0.00504455566406251
987	0.00732421875	310.657521215665	-3.7030029296875E-05	0.0074951171875
988	0.009765625	310.681921215604	-3.7615966796875E-05	0.009918212890625
989	0.01220703125	310.706321215542	-3.63555908203125E-05	0.012359619140625
990	0.0146484375	310.73072121548	-3.66790771484375E-05	0.0148284912109375
991	0.01708984375	310.755121215419	-3.58734130859375E-05	0.0172454833984375
992	0.01953125	310.779521215357	-3.5760498046875E-05	0.01971435546875
993	0.02197265625	310.803921215296	-3.57513427734375E-05	0.0221099853515625
