Index	Potential applied (V)	Time (s)	WE(1).Current (A)	WE(1).Potential (V)
1	0.00244140625	6.5219739835336	-3.50799560546875E-05	0.0026123046875
2	0.0048828125	6.54637398347199	-3.4765625E-05	0.00505676269531249
3	0.00732421875	6.57077398341039	-3.4857177734375E-05	0.007476806640625
4	0.009765625	6.59517398334879	-3.38623046875E-05	0.00992431640624999
5	0.01220703125	6.61957398328718	-3.42132568359375E-05	0.0123504638671875
6	0.0146484375	6.64397398322558	-3.30322265625E-05	0.014801025390625
7	0.01708984375	6.66837398316397	-3.33770751953125E-05	0.0172393798828125
8	0.01953125	6.69277398310237	-3.271484375E-05	0.019677734375
9	0.02197265625	6.71717398304077	-3.238525390625E-05	0.022113037109375
10	0.0244140625	6.74157398297916	-3.22967529296875E-05	0.024566650390625
11	0.02685546875	6.76597398291756	-3.1439208984375E-05	0.027008056640625
12	0.029296875	6.79037398285595	-3.19305419921875E-05	0.029443359375
13	0.03173828125	6.81477398279435	-3.07281494140625E-05	0.0318817138671875
14	0.0341796875	6.83917398273275	-3.0999755859375E-05	0.034356689453125
15	0.03662109375	6.86357398267114	-3.0194091796875E-05	0.036767578125
16	0.0390625	6.88797398260954	-3.00811767578125E-05	0.0392303466796875
17	0.04150390625	6.91237398254793	-3.004150390625E-05	0.041650390625
18	0.0439453125	6.93677398248633	-2.9266357421875E-05	0.044097900390625
19	0.04638671875	6.96117398242473	-2.962646484375E-05	0.04654541015625
20	0.048828125	6.98557398236312	-2.8521728515625E-05	0.0489715576171875
21	0.05126953125	7.00997398230152	-2.900390625E-05	0.05133056640625
22	0.0537109375	7.03437398223991	-2.823486328125E-05	0.053863525390625
23	0.05615234375	7.05877398217831	-2.8057861328125E-05	0.056243896484375
24	0.05859375	7.0831739821167	-2.78717041015625E-05	0.058746337890625
25	0.06103515625	7.1075739820551	-2.71728515625E-05	0.061187744140625
26	0.0634765625	7.1319739819935	-2.7667236328125E-05	0.0635986328125
27	0.06591796875	7.15637398193189	-2.65777587890625E-05	0.06597900390625
28	0.068359375	7.18077398187029	-2.696533203125E-05	0.068450927734375
29	0.07080078125	7.20517398180868	-2.61962890625E-05	0.070892333984375
30	0.0732421875	7.22957398174708	-2.59674072265625E-05	0.073394775390625
31	0.07568359375	7.25397398168548	-2.5933837890625E-05	0.075775146484375
32	0.078125	7.27837398162387	-2.50701904296875E-05	0.0782470703125
33	0.08056640625	7.30277398156227	-2.53021240234375E-05	0.080657958984375
34	0.0830078125	7.32717398150066	-2.41455078125E-05	0.083099365234375
35	0.08544921875	7.35157398143906	-2.4725341796875E-05	0.085601806640625
36	0.087890625	7.37597398137746	-2.364501953125E-05	0.087982177734375
37	0.09033203125	7.40037398131585	-2.354736328125E-05	0.090423583984375
38	0.0927734375	7.42477398125425	-2.32025146484375E-05	0.09283447265625
39	0.09521484375	7.44917398119264	-2.2625732421875E-05	0.09527587890625
40	0.09765625	7.47357398113104	-2.28912353515625E-05	0.0977783203125
41	0.10009765625	7.49797398106944	-2.16827392578125E-05	0.10015869140625
42	0.1025390625	7.52237398100783	-2.203369140625E-05	0.10260009765625
43	0.10498046875	7.54677398094623	-2.09747314453125E-05	0.10504150390625
44	0.107421875	7.57117398088462	-2.10693359375E-05	0.1075439453125
45	0.10986328125	7.59557398082302	-2.0806884765625E-05	0.109893798828125
46	0.1123046875	7.61997398076142	-1.99188232421875E-05	0.112396240234375
47	0.11474609375	7.64437398069981	-2.01629638671875E-05	0.11480712890625
48	0.1171875	7.66877398063821	-1.90093994140625E-05	0.11724853515625
49	0.11962890625	7.6931739805766	-1.95220947265625E-05	0.11968994140625
50	0.1220703125	7.717573980515	-1.85394287109375E-05	0.122161865234375
51	0.12451171875	7.74197398045339	-1.8701171875E-05	0.12457275390625
52	0.126953125	7.76637398039179	-1.80572509765625E-05	0.126983642578125
53	0.12939453125	7.79077398033019	-1.75567626953125E-05	0.1295166015625
54	0.1318359375	7.81517398026858	-1.78314208984375E-05	0.13189697265625
55	0.13427734375	7.83957398020698	-1.6693115234375E-05	0.134368896484375
56	0.13671875	7.86397398014537	-1.710205078125E-05	0.136749267578125
57	0.13916015625	7.88837398008377	-1.5911865234375E-05	0.139251708984375
58	0.1416015625	7.91277398002217	-1.60003662109375E-05	0.1417236328125
59	0.14404296875	7.93717397996056	-1.55120849609375E-05	0.1441650390625
60	0.146484375	7.96157397989896	-1.49627685546875E-05	0.146575927734375
61	0.14892578125	7.98597397983735	-1.502685546875E-05	0.14892578125
62	0.1513671875	8.01037397977575	-1.41143798828125E-05	0.15142822265625
63	0.15380859375	8.03477397971415	-1.45233154296875E-05	0.153839111328125
64	0.15625	8.05917397965254	-1.34552001953125E-05	0.15631103515625
65	0.15869140625	8.08357397959094	-1.38580322265625E-05	0.15875244140625
66	0.1611328125	8.10797397952933	-1.3262939453125E-05	0.16119384765625
67	0.16357421875	8.13237397946773	-1.30859375E-05	0.16363525390625
68	0.166015625	8.15677397940613	-1.32659912109375E-05	0.16607666015625
69	0.16845703125	8.18117397934452	-1.22039794921875E-05	0.168548583984375
70	0.1708984375	8.20557397928292	-1.24969482421875E-05	0.17095947265625
71	0.17333984375	8.22997397922131	-1.09619140625E-05	0.173370361328125
72	0.17578125	8.25437397915971	-1.15966796875E-05	0.175750732421875
73	0.17822265625	8.2787739790981	-1.1077880859375E-05	0.17828369140625
74	0.1806640625	8.3031739790365	-1.03302001953125E-05	0.18072509765625
75	0.18310546875	8.3275739789749	-1.03271484375E-05	0.183135986328125
76	0.185546875	8.35197397891329	-9.442138671875E-06	0.18560791015625
77	0.18798828125	8.37637397885169	-9.7198486328125E-06	0.18798828125
78	0.1904296875	8.40077397879008	-8.5845947265625E-06	0.1904296875
79	0.19287109375	8.42517397872848	-8.8134765625E-06	0.19293212890625
80	0.1953125	8.44957397866688	-8.0535888671875E-06	0.195343017578125
81	0.19775390625	8.47397397860527	-7.6385498046875E-06	0.197906494140625
82	0.2001953125	8.49837397854367	-7.7056884765625E-06	0.200286865234375
83	0.20263671875	8.52277397848206	-6.5704345703125E-06	0.20269775390625
84	0.205078125	8.54717397842046	-6.9732666015625E-06	0.205169677734375
85	0.20751953125	8.57157397835886	-5.9051513671875E-06	0.207611083984375
86	0.2099609375	8.59597397829725	-6.4239501953125E-06	0.2099609375
87	0.21240234375	8.62037397823565	-5.65185546875E-06	0.21246337890625
88	0.21484375	8.64477397817404	-5.0628662109375E-06	0.214874267578125
89	0.21728515625	8.66917397811244	-4.7088623046875E-06	0.217315673828125
90	0.2197265625	8.69357397805084	-4.08935546875E-06	0.219818115234375
91	0.22216796875	8.71797397798923	-4.534912109375E-06	0.22216796875
92	0.224609375	8.74237397792763	-3.67584228515625E-06	0.224639892578125
93	0.22705078125	8.76677397786602	-3.8848876953125E-06	0.227142333984375
94	0.2294921875	8.79117397780442	-2.89337158203125E-06	0.22955322265625
95	0.23193359375	8.81557397774282	-3.2635498046875E-06	0.232025146484375
96	0.234375	8.83997397768121	-2.82684326171875E-06	0.234375
97	0.23681640625	8.86437397761961	-2.07000732421875E-06	0.23687744140625
98	0.2392578125	8.888773977558	-1.8408203125E-06	0.2393798828125
99	0.24169921875	8.9131739774964	-6.719970703125E-07	0.24169921875
100	0.244140625	8.93757397743479	-1.09466552734375E-06	0.244140625
101	0.24658203125	8.96197397737319	-8.331298828125E-08	0.24664306640625
102	0.2490234375	8.98637397731159	-5.79833984375E-09	0.248992919921875
103	0.25146484375	9.01077397724998	3.3905029296875E-07	0.251495361328125
104	0.25390625	9.03517397718838	1.041259765625E-06	0.25396728515625
105	0.25634765625	9.05957397712677	3.729248046875E-07	0.256378173828125
106	0.2587890625	9.08397397706517	1.39434814453125E-06	0.258880615234375
107	0.26123046875	9.10837397700357	1.23809814453125E-06	0.26116943359375
108	0.263671875	9.13277397694196	2.07733154296875E-06	0.263671875
109	0.26611328125	9.15717397688036	2.4945068359375E-06	0.26605224609375
110	0.2685546875	9.18157397681875	2.7557373046875E-06	0.26849365234375
111	0.27099609375	9.20597397675715	3.5577392578125E-06	0.270965576171875
112	0.2734375	9.23037397669555	3.074951171875E-06	0.273406982421875
113	0.27587890625	9.25477397663394	4.3780517578125E-06	0.27581787109375
114	0.2783203125	9.27917397657234	3.839111328125E-06	0.278289794921875
115	0.28076171875	9.30357397651073	4.9835205078125E-06	0.2806396484375
116	0.283203125	9.32797397644913	5.2520751953125E-06	0.283050537109375
117	0.28564453125	9.35237397638753	5.4656982421875E-06	0.28558349609375
118	0.2880859375	9.37677397632592	6.2347412109375E-06	0.2879638671875
119	0.29052734375	9.40117397626432	5.889892578125E-06	0.290374755859375
120	0.29296875	9.42557397620271	7.2967529296875E-06	0.2928466796875
121	0.29541015625	9.44997397614111	6.9915771484375E-06	0.295257568359375
122	0.2978515625	9.47437397607951	8.160400390625E-06	0.2977294921875
123	0.30029296875	9.4987739760179	8.1695556640625E-06	0.300140380859375
124	0.302734375	9.5231739759563	8.4197998046875E-06	0.302581787109375
125	0.30517578125	9.54757397589469	8.7615966796875E-06	0.3050537109375
126	0.3076171875	9.57197397583309	8.642578125E-06	0.3074951171875
127	0.31005859375	9.59637397577148	9.942626953125E-06	0.3099365234375
128	0.3125	9.62077397570988	9.1522216796875E-06	0.312286376953125
129	0.31494140625	9.64517397564828	1.0223388671875E-05	0.3148193359375
130	0.3173828125	9.66957397558667	9.6893310546875E-06	0.3172607421875
131	0.31982421875	9.69397397552507	1.044921875E-05	0.3197021484375
132	0.322265625	9.71837397546346	1.04278564453125E-05	0.322052001953125
133	0.32470703125	9.74277397540186	1.08489990234375E-05	0.324554443359375
134	0.3271484375	9.76717397534026	1.19232177734375E-05	0.326934814453125
135	0.32958984375	9.79157397527865	1.18682861328125E-05	0.329437255859375
136	0.33203125	9.81597397521705	1.27044677734375E-05	0.33184814453125
137	0.33447265625	9.84037397515544	1.2628173828125E-05	0.33428955078125
138	0.3369140625	9.86477397509384	1.295166015625E-05	0.33673095703125
139	0.33935546875	9.88917397503224	1.375732421875E-05	0.339080810546875
140	0.341796875	9.91357397497063	1.39556884765625E-05	0.341522216796875
141	0.34423828125	9.93797397490903	1.47247314453125E-05	0.343994140625
142	0.3466796875	9.96237397484742	1.43798828125E-05	0.346405029296875
143	0.34912109375	9.98677397478582	1.52435302734375E-05	0.348846435546875
144	0.3515625	10.0111739747242	1.5283203125E-05	0.351318359375
145	0.35400390625	10.0355739746626	1.656494140625E-05	0.353759765625
146	0.3564453125	10.059973974601	1.656494140625E-05	0.356201171875
147	0.35888671875	10.0843739745394	1.7071533203125E-05	0.358612060546875
148	0.361328125	10.1087739744778	1.771240234375E-05	0.360931396484375
149	0.36376953125	10.1331739744162	1.81182861328125E-05	0.363433837890625
150	0.3662109375	10.1575739743546	1.88873291015625E-05	0.3658447265625
151	0.36865234375	10.181973974293	1.8511962890625E-05	0.368255615234375
152	0.37109375	10.2063739742314	1.9451904296875E-05	0.370758056640625
153	0.37353515625	10.2307739741698	2.0281982421875E-05	0.373138427734375
154	0.3759765625	10.2551739741082	2.00653076171875E-05	0.37567138671875
155	0.37841796875	10.2795739740466	2.15423583984375E-05	0.378021240234375
156	0.380859375	10.303973973985	2.1429443359375E-05	0.38043212890625
157	0.38330078125	10.3283739739234	2.264404296875E-05	0.382843017578125
158	0.3857421875	10.3527739738618	2.18963623046875E-05	0.385345458984375
159	0.38818359375	10.3771739738002	2.25128173828125E-05	0.387786865234375
160	0.390625	10.4015739737386	2.269287109375E-05	0.390228271484375
161	0.39306640625	10.4259739736769	2.27203369140625E-05	0.392669677734375
162	0.3955078125	10.4503739736153	2.4066162109375E-05	0.395050048828125
163	0.39794921875	10.4747739735537	2.4322509765625E-05	0.3974609375
164	0.400390625	10.4991739734921	2.506103515625E-05	0.39990234375
165	0.40283203125	10.5235739734305	2.45086669921875E-05	0.40228271484375
166	0.4052734375	10.5479739733689	2.559814453125E-05	0.40478515625
167	0.40771484375	10.5723739733073	2.606201171875E-05	0.40716552734375
168	0.41015625	10.5967739732457	2.59918212890625E-05	0.409698486328125
169	0.41259765625	10.6211739731841	2.76458740234375E-05	0.412109375
170	0.4150390625	10.6455739731225	2.71484375E-05	0.41448974609375
171	0.41748046875	10.6699739730609	2.88848876953125E-05	0.416900634765625
172	0.419921875	10.6943739729993	2.889404296875E-05	0.4193115234375
173	0.42236328125	10.7187739729377	3.02886962890625E-05	0.4217529296875
174	0.4248046875	10.7431739728761	3.05511474609375E-05	0.424652099609375
175	0.42724609375	10.7675739728145	3.043212890625E-05	0.42718505859375
176	0.4296875	10.7919739727529	3.08563232421875E-05	0.429595947265625
177	0.43212890625	10.8163739726913	3.10882568359375E-05	0.432037353515625
178	0.4345703125	10.8407739726297	3.3258056640625E-05	0.434539794921875
179	0.43701171875	10.8651739725681	3.231201171875E-05	0.436920166015625
180	0.439453125	10.8895739725065	3.41888427734375E-05	0.43939208984375
181	0.44189453125	10.9139739724449	3.43231201171875E-05	0.4417724609375
182	0.4443359375	10.9383739723833	3.52020263671875E-05	0.44427490234375
183	0.44677734375	10.9627739723217	3.61114501953125E-05	0.44671630859375
184	0.44921875	10.9871739722601	3.6260986328125E-05	0.449127197265625
185	0.45166015625	11.0115739721984	3.71124267578125E-05	0.451568603515625
186	0.4541015625	11.0359739721368	3.74969482421875E-05	0.4539794921875
187	0.45654296875	11.0603739720752	3.88092041015625E-05	0.45648193359375
188	0.458984375	11.0847739720136	3.87451171875E-05	0.458953857421875
189	0.46142578125	11.109173971952	3.96484375E-05	0.46136474609375
190	0.4638671875	11.1335739718904	4.056396484375E-05	0.463775634765625
191	0.46630859375	11.1579739718288	4.05242919921875E-05	0.4661865234375
192	0.46875	11.1823739717672	4.19464111328125E-05	0.468597412109375
193	0.47119140625	11.2067739717056	4.15496826171875E-05	0.47113037109375
194	0.4736328125	11.231173971644	4.34967041015625E-05	0.473480224609375
195	0.47607421875	11.2555739715824	4.425048828125E-05	0.476043701171875
196	0.478515625	11.2799739715208	4.5733642578125E-05	0.478424072265625
197	0.48095703125	11.3043739714592	4.63958740234375E-05	0.480804443359375
198	0.4833984375	11.3287739713976	4.6856689453125E-05	0.4832763671875
199	0.48583984375	11.353173971336	4.80712890625E-05	0.485687255859375
200	0.48828125	11.3775739712744	4.70123291015625E-05	0.4881591796875
201	0.49072265625	11.4019739712128	4.9530029296875E-05	0.4906005859375
202	0.4931640625	11.4263739711512	4.9713134765625E-05	0.4930419921875
203	0.49560546875	11.4507739710896	5.0811767578125E-05	0.4954833984375
204	0.498046875	11.475173971028	5.059814453125E-05	0.4979248046875
205	0.50048828125	11.4995739709664	5.21240234375E-05	0.5003662109375
206	0.5029296875	11.5239739709048	5.4107666015625E-05	0.5028076171875
207	0.50537109375	11.5483739708432	5.4168701171875E-05	0.505157470703125
208	0.5078125	11.5727739707816	5.5572509765625E-05	0.507659912109375
209	0.51025390625	11.59717397072	5.5938720703125E-05	0.510162353515625
210	0.5126953125	11.6215739706583	5.76171875E-05	0.5125732421875
211	0.51513671875	11.6459739705967	5.8837890625E-05	0.514984130859375
212	0.517578125	11.6703739705351	5.9844970703125E-05	0.5174560546875
213	0.52001953125	11.6947739704735	6.1309814453125E-05	0.519866943359375
214	0.5224609375	11.7191739704119	6.15234375E-05	0.5223388671875
215	0.52490234375	11.7435739703503	6.3018798828125E-05	0.52471923828125
216	0.52734375	11.7679739702887	6.34765625E-05	0.527130126953125
217	0.52978515625	11.7923739702271	6.512451171875E-05	0.529632568359375
218	0.5322265625	11.8167739701655	6.6070556640625E-05	0.53204345703125
219	0.53466796875	11.8411739701039	6.781005859375E-05	0.5345458984375
220	0.537109375	11.8655739700423	6.964111328125E-05	0.536956787109375
221	0.53955078125	11.8899739699807	7.01904296875E-05	0.539459228515625
222	0.5419921875	11.9143739699191	7.171630859375E-05	0.5418701171875
223	0.54443359375	11.9387739698575	7.3577880859375E-05	0.5443115234375
224	0.546875	11.9631739697959	7.51953125E-05	0.546722412109375
225	0.54931640625	11.9875739697343	7.60498046875E-05	0.5491943359375
226	0.5517578125	12.0119739696727	7.7423095703125E-05	0.551544189453125
227	0.55419921875	12.0363739696111	7.965087890625E-05	0.5540771484375
228	0.556640625	12.0607739695495	8.050537109375E-05	0.556488037109375
229	0.55908203125	12.0851739694879	8.294677734375E-05	0.55889892578125
230	0.5615234375	12.1095739694263	8.3282470703125E-05	0.56134033203125
231	0.56396484375	12.1339739693647	8.5052490234375E-05	0.56378173828125
232	0.56640625	12.1583739693031	8.673095703125E-05	0.566162109375
233	0.56884765625	12.1827739692415	8.85009765625E-05	0.568695068359375
234	0.5712890625	12.2071739691798	9.0850830078125E-05	0.571136474609375
235	0.57373046875	12.2315739691182	9.283447265625E-05	0.573516845703125
236	0.576171875	12.2559739690566	9.5001220703125E-05	0.575958251953125
237	0.57861328125	12.280373968995	9.6282958984375E-05	0.57843017578125
238	0.5810546875	12.3047739689334	9.8480224609375E-05	0.58087158203125
239	0.58349609375	12.3291739688718	0.000100677490234375	0.583251953125
240	0.5859375	12.3535739688102	0.000102935791015625	0.585693359375
241	0.58837890625	12.3779739687486	0.0001046142578125	0.588165283203125
242	0.5908203125	12.402373968687	0.000106231689453125	0.590545654296875
243	0.59326171875	12.4267739686254	0.00011041259765625	0.592987060546875
244	0.595703125	12.4511739685638	0.000111358642578125	0.595428466796875
245	0.59814453125	12.4755739685022	0.000114654541015625	0.597900390625
246	0.6005859375	12.4999739684406	0.00011700439453125	0.600311279296875
247	0.60302734375	12.524373968379	0.000119476318359375	0.602752685546875
248	0.60546875	12.5487739683174	0.00012139892578125	0.60516357421875
249	0.60791015625	12.5731739682558	0.00012359619140625	0.607574462890625
250	0.6103515625	12.5975739681942	0.000127288818359375	0.610137939453125
251	0.61279296875	12.6219739681326	0.0001292724609375	0.61248779296875
252	0.615234375	12.646373968071	0.0001322021484375	0.614898681640625
253	0.61767578125	12.6707739680094	0.000135223388671875	0.61737060546875
254	0.6201171875	12.6951739679478	0.000138397216796875	0.619781494140625
255	0.62255859375	12.7195739678862	0.000141448974609375	0.6221923828125
256	0.625	12.7439739678246	0.00014453125	0.624664306640625
257	0.62744140625	12.768373967763	0.000147705078125	0.62713623046875
258	0.6298828125	12.7927739677014	0.0001513671875	0.6295166015625
259	0.63232421875	12.8171739676397	0.00015557861328125	0.63189697265625
260	0.634765625	12.8415739675781	0.00015899658203125	0.634368896484375
261	0.63720703125	12.8659739675165	0.00016363525390625	0.636810302734375
262	0.6396484375	12.8903739674549	0.00016748046875	0.639251708984375
263	0.64208984375	12.9147739673933	0.000169525146484375	0.641632080078125
264	0.64453125	12.9391739673317	0.00017449951171875	0.64410400390625
265	0.64697265625	12.9635739672701	0.00017828369140625	0.646484375
266	0.6494140625	12.9879739672085	0.0001829833984375	0.648956298828125
267	0.65185546875	13.0123739671469	0.000186798095703125	0.6513671875
268	0.654296875	13.0367739670853	0.00019122314453125	0.65374755859375
269	0.65673828125	13.0611739670237	0.0001968994140625	0.656219482421875
270	0.6591796875	13.0855739669621	0.000201995849609375	0.658660888671875
271	0.66162109375	13.1099739669005	0.00020733642578125	0.6610107421875
272	0.6640625	13.1343739668389	0.000212005615234375	0.66351318359375
273	0.66650390625	13.1587739667773	0.00021649169921875	0.66595458984375
274	0.6689453125	13.1831739667157	0.00022125244140625	0.668304443359375
275	0.67138671875	13.2075739666541	0.00022784423828125	0.67083740234375
276	0.673828125	13.2319739665925	0.000232666015625	0.6732177734375
277	0.67626953125	13.2563739665309	0.000239501953125	0.67559814453125
278	0.6787109375	13.2807739664693	0.00024603271484375	0.67803955078125
279	0.68115234375	13.3051739664077	0.0002518310546875	0.68048095703125
280	0.68359375	13.3295739663461	0.000257720947265625	0.682891845703125
281	0.68603515625	13.3539739662845	0.000264373779296875	0.685333251953125
282	0.6884765625	13.3783739662229	0.00027178955078125	0.68768310546875
283	0.69091796875	13.4027739661612	0.000279205322265625	0.69012451171875
284	0.693359375	13.4271739660996	0.0002857666015625	0.69256591796875
285	0.69580078125	13.451573966038	0.000293914794921875	0.694976806640625
286	0.6982421875	13.4759739659764	0.00030096435546875	0.69732666015625
287	0.70068359375	13.5003739659148	0.000308013916015625	0.700531005859375
288	0.703125	13.5247739658532	0.00031671142578125	0.702972412109375
289	0.70556640625	13.5491739657916	0.000326080322265625	0.70538330078125
290	0.7080078125	13.57357396573	0.000333404541015625	0.707794189453125
291	0.71044921875	13.5979739656684	0.000343353271484375	0.710296630859375
292	0.712890625	13.6223739656068	0.000352020263671875	0.712646484375
293	0.71533203125	13.6467739655452	0.0003603515625	0.71514892578125
294	0.7177734375	13.6711739654836	0.000371856689453125	0.717529296875
295	0.72021484375	13.695573965422	0.0003817138671875	0.720001220703125
296	0.72265625	13.7199739653604	0.000392242431640625	0.72247314453125
297	0.72509765625	13.7443739652988	0.000402862548828125	0.724853515625
298	0.7275390625	13.7687739652372	0.000414794921875	0.72735595703125
299	0.72998046875	13.7931739651756	0.0004251708984375	0.729736328125
300	0.732421875	13.817573965114	0.000436370849609375	0.732147216796875
301	0.73486328125	13.8419739650524	0.000448944091796875	0.734588623046875
302	0.7373046875	13.8663739649908	0.000461395263671875	0.737060546875
303	0.73974609375	13.8907739649292	0.00047369384765625	0.739471435546875
304	0.7421875	13.9151739648676	0.0004864501953125	0.741943359375
305	0.74462890625	13.939573964806	0.0005010986328125	0.744354248046875
306	0.7470703125	13.9639739647444	0.00051544189453125	0.746826171875
307	0.74951171875	13.9883739646828	0.0005279541015625	0.749267578125
308	0.751953125	14.0127739646211	0.00054168701171875	0.7513427734375
309	0.75439453125	14.0371739645595	0.000555419921875	0.7537841796875
310	0.7568359375	14.0615739644979	0.0005706787109375	0.755615234375
311	0.75927734375	14.0859739644363	0.00058624267578125	0.75836181640625
312	0.76171875	14.1103739643747	0.00060211181640625	0.76080322265625
313	0.76416015625	14.1347739643131	0.00061798095703125	0.7635498046875
314	0.7666015625	14.1591739642515	0.00063568115234375	0.76629638671875
315	0.76904296875	14.1835739641899	0.00065155029296875	0.7684326171875
316	0.771484375	14.2079739641283	0.00066864013671875	0.77117919921875
317	0.77392578125	14.2323739640667	0.00068695068359375	0.77362060546875
318	0.7763671875	14.2567739640051	0.00070526123046875	0.77545166015625
319	0.77880859375	14.2811739639435	0.00072418212890625	0.7781982421875
320	0.78125	14.3055739638819	0.00074310302734375	0.78094482421875
321	0.78369140625	14.3299739638203	0.00076263427734375	0.7830810546875
322	0.7861328125	14.3543739637587	0.0007818603515625	0.78521728515625
323	0.78857421875	14.3787739636971	0.00080291748046875	0.7879638671875
324	0.791015625	14.4031739636355	0.0008233642578125	0.7904052734375
325	0.79345703125	14.4275739635739	0.0008441162109375	0.7928466796875
326	0.7958984375	14.4519739635123	0.000865478515625	0.79498291015625
327	0.79833984375	14.4763739634507	0.00088623046875	0.7977294921875
328	0.80078125	14.5007739633891	0.000909423828125	0.79986572265625
329	0.80322265625	14.5251739633275	0.0009320068359375	0.8026123046875
330	0.8056640625	14.5495739632659	0.00095611572265625	0.80474853515625
331	0.80810546875	14.5739739632043	0.00097991943359375	0.80718994140625
332	0.810546875	14.5983739631426	0.00100433349609375	0.80963134765625
333	0.81298828125	14.622773963081	0.001029052734375	0.811767578125
334	0.8154296875	14.6471739630194	0.001053466796875	0.81451416015625
335	0.81787109375	14.6715739629578	0.00107940673828125	0.81787109375
336	0.8203125	14.6959739628962	0.00110443115234375	0.819091796875
337	0.82275390625	14.7203739628346	0.00113189697265625	0.8221435546875
338	0.8251953125	14.744773962773	0.001158447265625	0.8245849609375
339	0.82763671875	14.7691739627114	0.0011859130859375	0.82672119140625
340	0.830078125	14.7935739626498	0.00121429443359375	0.82916259765625
341	0.83251953125	14.8179739625882	0.00124053955078125	0.8319091796875
342	0.8349609375	14.8423739625266	0.001270751953125	0.833740234375
343	0.83740234375	14.866773962465	0.00130035400390625	0.83709716796875
344	0.83984375	14.8911739624034	0.00132904052734375	0.83892822265625
345	0.84228515625	14.9155739623418	0.001358642578125	0.841064453125
346	0.8447265625	14.9399739622802	0.00139007568359375	0.843505859375
347	0.84716796875	14.9643739622186	0.00142120361328125	0.8465576171875
348	0.849609375	14.988773962157	0.00145172119140625	0.8489990234375
349	0.85205078125	15.0131739620954	0.0014849853515625	0.85113525390625
350	0.8544921875	15.0375739620338	0.00151580810546875	0.85357666015625
351	0.85693359375	15.0619739619722	0.0015496826171875	0.85601806640625
352	0.859375	15.0863739619106	0.00158111572265625	0.85845947265625
353	0.86181640625	15.110773961849	0.00161651611328125	0.8612060546875
354	0.8642578125	15.1351739617874	0.001650390625	0.86273193359375
355	0.86669921875	15.1595739617258	0.00168426513671875	0.865478515625
356	0.869140625	15.1839739616642	0.0017205810546875	0.8685302734375
357	0.87158203125	15.2083739616025	0.001754150390625	0.87066650390625
358	0.8740234375	15.2327739615409	0.00179168701171875	0.8734130859375
359	0.87646484375	15.2571739614793	0.00182708740234375	0.87554931640625
360	0.87890625	15.2815739614177	0.00186492919921875	0.87860107421875
361	0.88134765625	15.3059739613561	0.0019012451171875	0.88043212890625
362	0.8837890625	15.3303739612945	0.00193817138671875	0.882568359375
363	0.88623046875	15.3547739612329	0.0019781494140625	0.88531494140625
364	0.888671875	15.3791739611713	0.002015380859375	0.88775634765625
365	0.89111328125	15.4035739611097	0.00205535888671875	0.89019775390625
366	0.8935546875	15.4279739610481	0.0020928955078125	0.89263916015625
367	0.89599609375	15.4523739609865	0.00213287353515625	0.8953857421875
368	0.8984375	15.4767739609249	0.00217254638671875	0.89752197265625
369	0.90087890625	15.5011739608633	0.0022125244140625	0.89996337890625
370	0.9033203125	15.5255739608017	0.002254638671875	0.90301513671875
371	0.90576171875	15.5499739607401	0.00229400634765625	0.904541015625
372	0.908203125	15.5743739606785	0.0023370361328125	0.90789794921875
373	0.91064453125	15.5987739606169	0.00237762451171875	0.90972900390625
374	0.9130859375	15.6231739605553	0.00242095947265625	0.91217041015625
375	0.91552734375	15.6475739604937	0.0024627685546875	0.9149169921875
376	0.91796875	15.6719739604321	0.00250640869140625	0.916748046875
377	0.92041015625	15.6963739603705	0.00255096435546875	0.9197998046875
378	0.9228515625	15.7207739603089	0.00259307861328125	0.92254638671875
379	0.92529296875	15.7451739602473	0.00263885498046875	0.92437744140625
380	0.927734375	15.7695739601857	0.00268096923828125	0.9271240234375
381	0.93017578125	15.793973960124	0.00272674560546875	0.92987060546875
382	0.9326171875	15.8183739600624	0.00277130126953125	0.9320068359375
383	0.93505859375	15.8427739600008	0.00281707763671875	0.93414306640625
384	0.9375	15.8671739599392	0.00286376953125	0.93658447265625
385	0.93994140625	15.8915739598776	0.002908935546875	0.938720703125
386	0.9423828125	15.915973959816	0.002957763671875	0.94146728515625
387	0.94482421875	15.9403739597544	0.00300262451171875	0.94390869140625
388	0.947265625	15.9647739596928	0.0030517578125	0.946044921875
389	0.94970703125	15.9891739596312	0.00309814453125	0.94940185546875
390	0.9521484375	16.0135739595696	0.00314605712890625	0.95123291015625
391	0.95458984375	16.037973959508	0.00319488525390625	0.9539794921875
392	0.95703125	16.0623739594464	0.00324249267578125	0.95672607421875
393	0.95947265625	16.0867739593848	0.00329193115234375	0.95916748046875
394	0.9619140625	16.1111739593232	0.00333984375	0.96099853515625
395	0.96435546875	16.1355739592616	0.003389892578125	0.96343994140625
396	0.966796875	16.1599739592	0.00343841552734375	0.96588134765625
397	0.96923828125	16.1843739591384	0.0034881591796875	0.96832275390625
398	0.9716796875	16.2087739590768	0.0035382080078125	0.97076416015625
399	0.97412109375	16.2331739590152	0.00358642578125	0.9735107421875
400	0.9765625	16.2575739589536	0.00363739013671875	0.97625732421875
401	0.97900390625	16.281973958892	0.003685302734375	0.97808837890625
402	0.9814453125	16.3063739588304	0.00373687744140625	0.98052978515625
403	0.98388671875	16.3307739587688	0.0037841796875	0.98297119140625
404	0.986328125	16.3551739587072	0.0038330078125	0.98541259765625
405	0.98876953125	16.3795739586456	0.00388214111328125	0.98785400390625
406	0.9912109375	16.4039739585839	0.00392974853515625	0.9906005859375
407	0.99365234375	16.4283739585223	0.00397796630859375	0.99273681640625
408	0.99609375	16.4527739584607	0.0040234375	0.99517822265625
409	0.99853515625	16.4771739583991	0.00407012939453125	0.9979248046875
410	1.0009765625	16.5015739583375	0.00411376953125	1.0003662109375
411	1.00341796875	16.5259739582759	0.004158935546875	1.00250244140625
412	1.005859375	16.5503739582143	0.00420196533203125	1.0052490234375
413	1.00830078125	16.5747739581527	0.00424285888671875	1.00799560546875
414	1.0107421875	16.5991739580911	0.00428497314453125	1.009521484375
415	1.01318359375	16.6235739580295	0.00432373046875	1.01226806640625
416	1.015625	16.6479739579679	0.00436370849609375	1.01470947265625
417	1.01806640625	16.6723739579063	0.00439971923828125	1.0174560546875
418	1.0205078125	16.6967739578447	0.00443695068359375	1.0198974609375
419	1.02294921875	16.7211739577831	0.0044720458984375	1.02203369140625
420	1.025390625	16.7455739577215	0.00450592041015625	1.02447509765625
421	1.02783203125	16.7699739576599	0.00453948974609375	1.026611328125
422	1.0302734375	16.7943739575983	0.0045703125	1.02935791015625
423	1.03271484375	16.8187739575367	0.00460235595703125	1.03179931640625
424	1.03515625	16.8431739574751	0.00463134765625	1.03424072265625
425	1.03759765625	16.8675739574135	0.00466094970703125	1.03668212890625
426	1.0400390625	16.8919739573519	0.00468841552734375	1.03912353515625
427	1.04248046875	16.9163739572903	0.004715576171875	1.0418701171875
428	1.044921875	16.9407739572287	0.004742431640625	1.04400634765625
429	1.04736328125	16.9651739571671	0.00476776123046875	1.04644775390625
430	1.0498046875	16.9895739571054	0.0047930908203125	1.048583984375
431	1.05224609375	17.0139739570438	0.00481658935546875	1.0516357421875
432	1.0546875	17.0383739569822	0.00484039306640625	1.05377197265625
433	1.05712890625	17.0627739569206	0.00486297607421875	1.0565185546875
434	1.0595703125	17.087173956859	0.00488525390625	1.058349609375
435	1.06201171875	17.1115739567974	0.0049072265625	1.0614013671875
436	1.064453125	17.1359739567358	0.00492767333984375	1.06353759765625
437	1.06689453125	17.1603739566742	0.00494903564453125	1.06597900390625
438	1.0693359375	17.1847739566126	0.0049688720703125	1.068115234375
439	1.07177734375	17.209173956551	0.004989013671875	1.070556640625
440	1.07421875	17.2335739564894	0.00500762939453125	1.07330322265625
441	1.07666015625	17.2579739564278	0.00502655029296875	1.075439453125
442	1.0791015625	17.2823739563662	0.00504486083984375	1.0784912109375
443	1.08154296875	17.3067739563046	0.00506256103515625	1.0809326171875
444	1.083984375	17.331173956243	0.00508026123046875	1.08245849609375
445	1.08642578125	17.3555739561814	0.0050970458984375	1.08551025390625
446	1.0888671875	17.3799739561198	0.00511444091796875	1.087646484375
447	1.09130859375	17.4043739560582	0.005130615234375	1.0906982421875
448	1.09375	17.4287739559966	0.00514678955078125	1.09283447265625
449	1.09619140625	17.453173955935	0.00516265869140625	1.094970703125
450	1.0986328125	17.4775739558734	0.00517822265625	1.0980224609375
451	1.10107421875	17.5019739558118	0.00519378662109375	1.099853515625
452	1.103515625	17.5263739557502	0.005208740234375	1.10260009765625
453	1.10595703125	17.5507739556886	0.00522369384765625	1.104736328125
454	1.1083984375	17.575173955627	0.005238037109375	1.10748291015625
455	1.11083984375	17.5995739555653	0.00525238037109375	1.1102294921875
456	1.11328125	17.6239739555037	0.0052667236328125	1.11236572265625
457	1.11572265625	17.6483739554421	0.00528045654296875	1.114501953125
458	1.1181640625	17.6727739553805	0.00529449462890625	1.116943359375
459	1.12060546875	17.6971739553189	0.0053076171875	1.119384765625
460	1.123046875	17.7215739552573	0.005321044921875	1.121826171875
461	1.12548828125	17.7459739551957	0.0053338623046875	1.12457275390625
462	1.1279296875	17.7703739551341	0.00534698486328125	1.126708984375
463	1.13037109375	17.7947739550725	0.0053594970703125	1.12945556640625
464	1.1328125	17.8191739550109	0.00537200927734375	1.1322021484375
465	1.13525390625	17.8435739549493	0.005384521484375	1.13433837890625
466	1.1376953125	17.8679739548877	0.005396728515625	1.13677978515625
467	1.14013671875	17.8923739548261	0.005408935546875	1.13922119140625
468	1.142578125	17.9167739547645	0.0054205322265625	1.141357421875
469	1.14501953125	17.9411739547029	0.00543212890625	1.14410400390625
470	1.1474609375	17.9655739546413	0.0054437255859375	1.14654541015625
471	1.14990234375	17.9899739545797	0.005455322265625	1.1492919921875
472	1.15234375	18.0143739545181	0.00546661376953125	1.15142822265625
473	1.15478515625	18.0387739544565	0.00547760009765625	1.15386962890625
474	1.1572265625	18.0631739543949	0.0054888916015625	1.15631103515625
475	1.15966796875	18.0875739543333	0.00549957275390625	1.15875244140625
476	1.162109375	18.1119739542717	0.00551055908203125	1.16119384765625
477	1.16455078125	18.1363739542101	0.00552093505859375	1.16363525390625
478	1.1669921875	18.1607739541485	0.00553131103515625	1.165771484375
479	1.16943359375	18.1851739540868	0.0055419921875	1.16851806640625
480	1.171875	18.2095739540252	0.00555206298828125	1.17156982421875
481	1.17431640625	18.2339739539636	0.00556243896484375	1.17340087890625
482	1.1767578125	18.258373953902	0.00557220458984375	1.175537109375
483	1.17919921875	18.2827739538404	0.005582275390625	1.177978515625
484	1.181640625	18.3071739537788	0.00559234619140625	1.18072509765625
485	1.18408203125	18.3315739537172	0.00560211181640625	1.18316650390625
486	1.1865234375	18.3559739536556	0.00561187744140625	1.18560791015625
487	1.18896484375	18.380373953594	0.005621337890625	1.18804931640625
488	1.19140625	18.4047739535324	0.00563079833984375	1.19049072265625
489	1.19384765625	18.4291739534708	0.0056402587890625	1.19232177734375
490	1.1962890625	18.4535739534092	0.00564971923828125	1.195068359375
491	1.19873046875	18.4779739533476	0.00565887451171875	1.19781494140625
492	1.201171875	18.502373953286	0.00566802978515625	1.19964599609375
493	1.19873046875	18.5267739532244	0.0056536865234375	1.1981201171875
494	1.1962890625	18.5511739531628	0.00563934326171875	1.19537353515625
495	1.19384765625	18.5755739531012	0.00562469482421875	1.192626953125
496	1.19140625	18.5999739530396	0.0056097412109375	1.190185546875
497	1.18896484375	18.624373952978	0.00559478759765625	1.18804931640625
498	1.1865234375	18.6487739529164	0.00557952880859375	1.18560791015625
499	1.18408203125	18.6731739528548	0.00556396484375	1.182861328125
500	1.181640625	18.6975739527932	0.005548095703125	1.18072509765625
501	1.17919921875	18.7219739527316	0.0055322265625	1.17828369140625
502	1.1767578125	18.74637395267	0.00551605224609375	1.17584228515625
503	1.17431640625	18.7707739526084	0.00549957275390625	1.17340087890625
504	1.171875	18.7951739525467	0.0054827880859375	1.170654296875
505	1.16943359375	18.8195739524851	0.0054656982421875	1.168212890625
506	1.1669921875	18.8439739524235	0.00544830322265625	1.16607666015625
507	1.16455078125	18.8683739523619	0.005430908203125	1.163330078125
508	1.162109375	18.8927739523003	0.00541290283203125	1.160888671875
509	1.15966796875	18.9171739522387	0.00539459228515625	1.15875244140625
510	1.1572265625	18.9415739521771	0.00537567138671875	1.15631103515625
511	1.15478515625	18.9659739521155	0.0053570556640625	1.1529541015625
512	1.15234375	18.9903739520539	0.00533721923828125	1.15142822265625
513	1.14990234375	19.0147739519923	0.00531768798828125	1.14898681640625
514	1.1474609375	19.0391739519307	0.0052972412109375	1.146240234375
515	1.14501953125	19.0635739518691	0.0052764892578125	1.143798828125
516	1.142578125	19.0879739518075	0.005255126953125	1.14166259765625
517	1.14013671875	19.1123739517459	0.00523345947265625	1.138916015625
518	1.1376953125	19.1367739516843	0.00521148681640625	1.136474609375
519	1.13525390625	19.1611739516227	0.00518829345703125	1.13433837890625
520	1.1328125	19.1855739515611	0.005164794921875	1.1322021484375
521	1.13037109375	19.2099739514995	0.0051409912109375	1.12945556640625
522	1.1279296875	19.2343739514379	0.00511627197265625	1.126708984375
523	1.12548828125	19.2587739513763	0.0050909423828125	1.12396240234375
524	1.123046875	19.2831739513147	0.005064697265625	1.12274169921875
525	1.12060546875	19.3075739512531	0.005037841796875	1.11968994140625
526	1.1181640625	19.3319739511915	0.00501007080078125	1.11724853515625
527	1.11572265625	19.3563739511299	0.004981689453125	1.114501953125
528	1.11328125	19.3807739510682	0.0049517822265625	1.11236572265625
529	1.11083984375	19.4051739510066	0.004920654296875	1.10992431640625
530	1.1083984375	19.429573950945	0.00488922119140625	1.107177734375
531	1.10595703125	19.4539739508834	0.00485595703125	1.104736328125
532	1.103515625	19.4783739508218	0.00482177734375	1.10198974609375
533	1.10107421875	19.5027739507602	0.00478546142578125	1.1004638671875
534	1.0986328125	19.5271739506986	0.00474853515625	1.09771728515625
535	1.09619140625	19.551573950637	0.00470947265625	1.094970703125
536	1.09375	19.5759739505754	0.00466888427734375	1.0931396484375
537	1.09130859375	19.6003739505138	0.00462615966796875	1.09039306640625
538	1.0888671875	19.6247739504522	0.00458160400390625	1.0882568359375
539	1.08642578125	19.6491739503906	0.0045355224609375	1.08551025390625
540	1.083984375	19.673573950329	0.0044866943359375	1.082763671875
541	1.08154296875	19.6979739502674	0.00443634033203125	1.08062744140625
542	1.0791015625	19.7223739502058	0.00438232421875	1.077880859375
543	1.07666015625	19.7467739501442	0.0043267822265625	1.07574462890625
544	1.07421875	19.7711739500826	0.00426910400390625	1.072998046875
545	1.07177734375	19.795573950021	0.00420867919921875	1.070556640625
546	1.0693359375	19.8199739499594	0.00414642333984375	1.06781005859375
547	1.06689453125	19.8443739498978	0.0040814208984375	1.06597900390625
548	1.064453125	19.8687739498362	0.00401641845703125	1.063232421875
549	1.06201171875	19.8931739497746	0.003948974609375	1.06109619140625
550	1.0595703125	19.917573949713	0.00388092041015625	1.05865478515625
551	1.05712890625	19.9419739496514	0.0038116455078125	1.0565185546875
552	1.0546875	19.9663739495898	0.003741455078125	1.053466796875
553	1.05224609375	19.9907739495281	0.00367218017578125	1.051025390625
554	1.0498046875	20.0151739494665	0.003602294921875	1.04888916015625
555	1.04736328125	20.0395739494049	0.0035333251953125	1.04705810546875
556	1.044921875	20.0639739493433	0.00346343994140625	1.04400634765625
557	1.04248046875	20.0883739492817	0.00339508056640625	1.041259765625
558	1.0400390625	20.1127739492201	0.00332733154296875	1.038818359375
559	1.03759765625	20.1371739491585	0.0032598876953125	1.0369873046875
560	1.03515625	20.1615739490969	0.003193359375	1.03424072265625
561	1.03271484375	20.1859739490353	0.003126220703125	1.03179931640625
562	1.0302734375	20.2103739489737	0.00306182861328125	1.0296630859375
563	1.02783203125	20.2347739489121	0.00299774169921875	1.02691650390625
564	1.025390625	20.2591739488505	0.0029345703125	1.024169921875
565	1.02294921875	20.2835739487889	0.00287139892578125	1.02142333984375
566	1.0205078125	20.3079739487273	0.0028094482421875	1.019287109375
567	1.01806640625	20.3323739486657	0.00274932861328125	1.01715087890625
568	1.015625	20.3567739486041	0.00268829345703125	1.01470947265625
569	1.01318359375	20.3811739485425	0.0026300048828125	1.01226806640625
570	1.0107421875	20.4055739484809	0.002572021484375	1.00982666015625
571	1.00830078125	20.4299739484193	0.00251556396484375	1.0076904296875
572	1.005859375	20.4543739483577	0.00246063232421875	1.00494384765625
573	1.00341796875	20.4787739482961	0.00240509033203125	1.0028076171875
574	1.0009765625	20.5031739482345	0.00235107421875	0.999755859375
575	0.99853515625	20.5275739481729	0.0022979736328125	0.9979248046875
576	0.99609375	20.5519739481113	0.00224609375	0.994873046875
577	0.99365234375	20.5763739480496	0.00219482421875	0.9930419921875
578	0.9912109375	20.600773947988	0.00214508056640625	0.9906005859375
579	0.98876953125	20.6251739479264	0.00209564208984375	0.9881591796875
580	0.986328125	20.6495739478648	0.0020477294921875	0.9857177734375
581	0.98388671875	20.6739739478032	0.00200103759765625	0.98297119140625
582	0.9814453125	20.6983739477416	0.0019549560546875	0.980224609375
583	0.97900390625	20.72277394768	0.00190948486328125	0.97808837890625
584	0.9765625	20.7471739476184	0.001865234375	0.9759521484375
585	0.97412109375	20.7715739475568	0.0018218994140625	0.97320556640625
586	0.9716796875	20.7959739474952	0.0017803955078125	0.970458984375
587	0.96923828125	20.8203739474336	0.0017388916015625	0.9686279296875
588	0.966796875	20.844773947372	0.00169830322265625	0.96588134765625
589	0.96435546875	20.8691739473104	0.00165924072265625	0.9637451171875
590	0.9619140625	20.8935739472488	0.00162139892578125	0.9613037109375
591	0.95947265625	20.9179739471872	0.0015838623046875	0.958251953125
592	0.95703125	20.9423739471256	0.0015478515625	0.955810546875
593	0.95458984375	20.966773947064	0.00151214599609375	0.95367431640625
594	0.9521484375	20.9911739470024	0.001478271484375	0.950927734375
595	0.94970703125	21.0155739469408	0.001444091796875	0.94940185546875
596	0.947265625	21.0399739468792	0.00141082763671875	0.94635009765625
597	0.94482421875	21.0643739468176	0.00137939453125	0.9442138671875
598	0.9423828125	21.088773946756	0.00134735107421875	0.9417724609375
599	0.93994140625	21.1131739466944	0.00131805419921875	0.93902587890625
600	0.9375	21.1375739466328	0.0012884521484375	0.93658447265625
601	0.93505859375	21.1619739465712	0.00125946044921875	0.93414306640625
602	0.9326171875	21.1863739465095	0.00123077392578125	0.93170166015625
603	0.93017578125	21.2107739464479	0.00120391845703125	0.92926025390625
604	0.927734375	21.2351739463863	0.00117767333984375	0.9271240234375
605	0.92529296875	21.2595739463247	0.00115203857421875	0.92437744140625
606	0.9228515625	21.2839739462631	0.00112762451171875	0.9222412109375
607	0.92041015625	21.3083739462015	0.001103515625	0.91949462890625
608	0.91796875	21.3327739461399	0.001080322265625	0.91766357421875
609	0.91552734375	21.3571739460783	0.00105743408203125	0.91552734375
610	0.9130859375	21.3815739460167	0.001033935546875	0.91278076171875
611	0.91064453125	21.4059739459551	0.00101348876953125	0.90972900390625
612	0.908203125	21.4303739458935	0.00099151611328125	0.90789794921875
613	0.90576171875	21.4547739458319	0.0009710693359375	0.90545654296875
614	0.9033203125	21.4791739457703	0.0009515380859375	0.9027099609375
615	0.90087890625	21.5035739457087	0.0009326171875	0.899658203125
616	0.8984375	21.5279739456471	0.00091217041015625	0.89752197265625
617	0.89599609375	21.5523739455855	0.0008941650390625	0.89508056640625
618	0.8935546875	21.5767739455239	0.00087493896484375	0.892333984375
619	0.89111328125	21.6011739454623	0.00085845947265625	0.8905029296875
620	0.888671875	21.6255739454007	0.0008416748046875	0.88775634765625
621	0.88623046875	21.6499739453391	0.00082489013671875	0.885009765625
622	0.8837890625	21.6743739452775	0.00080841064453125	0.8831787109375
623	0.88134765625	21.6987739452159	0.000792236328125	0.8807373046875
624	0.87890625	21.7231739451543	0.000777587890625	0.87799072265625
625	0.87646484375	21.7475739450927	0.0007635498046875	0.875244140625
626	0.8740234375	21.771973945031	0.00074920654296875	0.87310791015625
627	0.87158203125	21.7963739449694	0.000733642578125	0.87066650390625
628	0.869140625	21.8207739449078	0.0007208251953125	0.86761474609375
629	0.86669921875	21.8451739448462	0.0007061767578125	0.86578369140625
630	0.8642578125	21.8695739447846	0.000693359375	0.86334228515625
631	0.86181640625	21.893973944723	0.000679931640625	0.86090087890625
632	0.859375	21.9183739446614	0.0006683349609375	0.85845947265625
633	0.85693359375	21.9427739445998	0.000655517578125	0.85662841796875
634	0.8544921875	21.9671739445382	0.000643310546875	0.85418701171875
635	0.85205078125	21.9915739444766	0.000631103515625	0.85113525390625
636	0.849609375	22.015973944415	0.0006207275390625	0.8489990234375
637	0.84716796875	22.0403739443534	0.00060943603515625	0.845947265625
638	0.8447265625	22.0647739442918	0.00059814453125	0.84381103515625
639	0.84228515625	22.0891739442302	0.00058746337890625	0.84075927734375
640	0.83984375	22.1135739441686	0.000577392578125	0.83953857421875
641	0.83740234375	22.137973944107	0.00056640625	0.83648681640625
642	0.8349609375	22.1623739440454	0.00055694580078125	0.83404541015625
643	0.83251953125	22.1867739439838	0.00054595947265625	0.8319091796875
644	0.830078125	22.2111739439222	0.00053680419921875	0.828857421875
645	0.82763671875	22.2355739438606	0.0005279541015625	0.82672119140625
646	0.8251953125	22.259973943799	0.0005181884765625	0.82366943359375
647	0.82275390625	22.2843739437374	0.000509033203125	0.8221435546875
648	0.8203125	22.3087739436758	0.0004986572265625	0.819091796875
649	0.81787109375	22.3331739436142	0.000490447998046875	0.8172607421875
650	0.8154296875	22.3575739435526	0.000481719970703125	0.81451416015625
651	0.81298828125	22.3819739434909	0.00047412109375	0.81207275390625
652	0.810546875	22.4063739434293	0.000464935302734375	0.80963134765625
653	0.80810546875	22.4307739433677	0.00045709228515625	0.80718994140625
654	0.8056640625	22.4551739433061	0.000448760986328125	0.80474853515625
655	0.80322265625	22.4795739432445	0.0004405517578125	0.802001953125
656	0.80078125	22.5039739431829	0.000434661865234375	0.799560546875
657	0.79833984375	22.5283739431213	0.000426239013671875	0.7977294921875
658	0.7958984375	22.5527739430597	0.000419189453125	0.79559326171875
659	0.79345703125	22.5771739429981	0.0004117431640625	0.7928466796875
660	0.791015625	22.6015739429365	0.000404510498046875	0.789794921875
661	0.78857421875	22.6259739428749	0.000397125244140625	0.7879638671875
662	0.7861328125	22.6503739428133	0.00039013671875	0.78521728515625
663	0.78369140625	22.6747739427517	0.00038214111328125	0.782470703125
664	0.78125	22.6991739426901	0.000375335693359375	0.78094482421875
665	0.77880859375	22.7235739426285	0.0003687744140625	0.7781982421875
666	0.7763671875	22.7479739425669	0.000362213134765625	0.775146484375
667	0.77392578125	22.7723739425053	0.00035626220703125	0.7733154296875
668	0.771484375	22.7967739424437	0.00035064697265625	0.77117919921875
669	0.76904296875	22.8211739423821	0.000343475341796875	0.76812744140625
670	0.7666015625	22.8455739423205	0.000338226318359375	0.7659912109375
671	0.76416015625	22.8699739422589	0.000331939697265625	0.762939453125
672	0.76171875	22.8943739421973	0.000326568603515625	0.76141357421875
673	0.75927734375	22.9187739421357	0.00032073974609375	0.75836181640625
674	0.7568359375	22.9431739420741	0.00031549072265625	0.75592041015625
675	0.75439453125	22.9675739420125	0.000308990478515625	0.75347900390625
676	0.751953125	22.9919739419508	0.00030389404296875	0.75103759765625
677	0.74951171875	23.0163739418892	0.00029986572265625	0.749267578125
678	0.7470703125	23.0407739418276	0.000293670654296875	0.746826171875
679	0.74462890625	23.065173941766	0.00028839111328125	0.744415283203125
680	0.7421875	23.0895739417044	0.00028277587890625	0.741912841796875
681	0.73974609375	23.1139739416428	0.000278228759765625	0.73956298828125
682	0.7373046875	23.1383739415812	0.0002730712890625	0.737060546875
683	0.73486328125	23.1627739415196	0.00026763916015625	0.734649658203125
684	0.732421875	23.187173941458	0.00026287841796875	0.732177734375
685	0.72998046875	23.2115739413964	0.000258331298828125	0.729766845703125
686	0.7275390625	23.2359739413348	0.000254486083984375	0.727294921875
687	0.72509765625	23.2603739412732	0.00024945068359375	0.72491455078125
688	0.72265625	23.2847739412116	0.0002449951171875	0.72247314453125
689	0.72021484375	23.30917394115	0.000240234375	0.72003173828125
690	0.7177734375	23.3335739410884	0.000236328125	0.71759033203125
691	0.71533203125	23.3579739410268	0.000232666015625	0.715179443359375
692	0.712890625	23.3823739409652	0.00022735595703125	0.712646484375
693	0.71044921875	23.4067739409036	0.000223541259765625	0.71026611328125
694	0.7080078125	23.431173940842	0.000218902587890625	0.707763671875
695	0.70556640625	23.4555739407804	0.000214202880859375	0.705352783203125
696	0.703125	23.4799739407188	0.000209808349609375	0.702911376953125
697	0.70068359375	23.5043739406572	0.000206146240234375	0.70050048828125
698	0.6982421875	23.5287739405956	0.000203033447265625	0.698089599609375
699	0.69580078125	23.553173940534	0.0001990966796875	0.695648193359375
700	0.693359375	23.5775739404723	0.000196258544921875	0.693206787109375
701	0.69091796875	23.6019739404107	0.000191436767578125	0.690673828125
702	0.6884765625	23.6263739403491	0.0001876220703125	0.688385009765625
703	0.68603515625	23.6507739402875	0.000183990478515625	0.6859130859375
704	0.68359375	23.6751739402259	0.000180755615234375	0.6834716796875
705	0.68115234375	23.6995739401643	0.000177886962890625	0.68096923828125
706	0.6787109375	23.7239739401027	0.00017486572265625	0.67852783203125
707	0.67626953125	23.7483739400411	0.000171234130859375	0.67608642578125
708	0.673828125	23.7727739399795	0.000166778564453125	0.673614501953125
709	0.67138671875	23.7971739399179	0.000164886474609375	0.6712646484375
710	0.6689453125	23.8215739398563	0.000160797119140625	0.6688232421875
711	0.66650390625	23.8459739397947	0.00015692138671875	0.6663818359375
712	0.6640625	23.8703739397331	0.0001551513671875	0.6639404296875
713	0.66162109375	23.8947739396715	0.00015179443359375	0.66143798828125
714	0.6591796875	23.9191739396099	0.000149383544921875	0.659027099609375
715	0.65673828125	23.9435739395483	0.000145965576171875	0.6566162109375
716	0.654296875	23.9679739394867	0.000144134521484375	0.654144287109375
717	0.65185546875	23.9923739394251	0.000140838623046875	0.6517333984375
718	0.6494140625	24.0167739393635	0.000137359619140625	0.649261474609375
719	0.64697265625	24.0411739393019	0.000135284423828125	0.6468505859375
720	0.64453125	24.0655739392403	0.000132293701171875	0.644439697265625
721	0.64208984375	24.0899739391787	0.0001302490234375	0.641998291015625
722	0.6396484375	24.1143739391171	0.0001265869140625	0.63958740234375
723	0.63720703125	24.1387739390555	0.000125030517578125	0.6370849609375
724	0.634765625	24.1631739389939	0.000121917724609375	0.634613037109375
725	0.63232421875	24.1875739389322	0.000119598388671875	0.6322021484375
726	0.6298828125	24.2119739388706	0.00011676025390625	0.629791259765625
727	0.62744140625	24.236373938809	0.0001141357421875	0.627349853515625
728	0.625	24.2607739387474	0.00011279296875	0.624908447265625
729	0.62255859375	24.2851739386858	0.000109832763671875	0.622467041015625
730	0.6201171875	24.3095739386242	0.0001080322265625	0.620025634765625
731	0.61767578125	24.3339739385626	0.000106231689453125	0.617584228515625
732	0.615234375	24.358373938501	0.000104736328125	0.6151123046875
733	0.61279296875	24.3827739384394	0.0001019287109375	0.612701416015625
734	0.6103515625	24.4071739383778	9.94873046875E-05	0.61029052734375
735	0.60791015625	24.4315739383162	9.8236083984375E-05	0.60784912109375
736	0.60546875	24.4559739382546	9.6435546875E-05	0.60540771484375
737	0.60302734375	24.480373938193	9.5001220703125E-05	0.6029052734375
738	0.6005859375	24.5047739381314	9.19189453125E-05	0.600494384765625
739	0.59814453125	24.5291739380698	9.0057373046875E-05	0.59783935546875
740	0.595703125	24.5535739380082	8.8836669921875E-05	0.59552001953125
741	0.59326171875	24.5779739379466	8.6517333984375E-05	0.593017578125
742	0.5908203125	24.602373937885	8.5968017578125E-05	0.59063720703125
743	0.58837890625	24.6267739378234	8.3648681640625E-05	0.588165283203125
744	0.5859375	24.6511739377618	8.2672119140625E-05	0.585784912109375
745	0.58349609375	24.6755739377002	8.0230712890625E-05	0.58331298828125
746	0.5810546875	24.6999739376386	8.013916015625E-05	0.580841064453125
747	0.57861328125	24.724373937577	7.8369140625E-05	0.578399658203125
748	0.576171875	24.7487739375154	7.58056640625E-05	0.576019287109375
749	0.57373046875	24.7731739374537	7.4249267578125E-05	0.57354736328125
750	0.5712890625	24.7975739373921	7.208251953125E-05	0.571136474609375
751	0.56884765625	24.8219739373305	7.208251953125E-05	0.56866455078125
752	0.56640625	24.8463739372689	6.97021484375E-05	0.566253662109375
753	0.56396484375	24.8707739372073	6.8206787109375E-05	0.563812255859375
754	0.5615234375	24.8951739371457	6.65283203125E-05	0.561370849609375
755	0.55908203125	24.9195739370841	6.524658203125E-05	0.558929443359375
756	0.556640625	24.9439739370225	6.439208984375E-05	0.556488037109375
757	0.55419921875	24.9683739369609	6.243896484375E-05	0.554046630859375
758	0.5517578125	24.9927739368993	6.158447265625E-05	0.5516357421875
759	0.54931640625	25.0171739368377	5.9844970703125E-05	0.5491943359375
760	0.546875	25.0415739367761	5.914306640625E-05	0.546722412109375
761	0.54443359375	25.0659739367145	5.7159423828125E-05	0.544281005859375
762	0.5419921875	25.0903739366529	5.621337890625E-05	0.541839599609375
763	0.53955078125	25.1147739365913	5.5389404296875E-05	0.539398193359375
764	0.537109375	25.1391739365297	5.364990234375E-05	0.5369873046875
765	0.53466796875	25.1635739364681	5.3131103515625E-05	0.5345458984375
766	0.5322265625	25.1879739364065	5.145263671875E-05	0.53204345703125
767	0.52978515625	25.2123739363449	5.13916015625E-05	0.529632568359375
768	0.52734375	25.2367739362833	4.9957275390625E-05	0.527191162109375
769	0.52490234375	25.2611739362217	4.86419677734375E-05	0.524810791015625
770	0.5224609375	25.2855739361601	4.727783203125E-05	0.522308349609375
771	0.52001953125	25.3099739360985	4.6697998046875E-05	0.5198974609375
772	0.517578125	25.3343739360369	4.61334228515625E-05	0.517486572265625
773	0.51513671875	25.3587739359753	4.4781494140625E-05	0.51495361328125
774	0.5126953125	25.3831739359136	4.4378662109375E-05	0.51251220703125
775	0.51025390625	25.407573935852	4.273681640625E-05	0.51007080078125
776	0.5078125	25.4319739357904	4.24591064453125E-05	0.507720947265625
777	0.50537109375	25.4563739357288	4.2144775390625E-05	0.5052490234375
778	0.5029296875	25.4807739356672	4.01580810546875E-05	0.5028076171875
779	0.50048828125	25.5051739356056	4.04541015625E-05	0.500335693359375
780	0.498046875	25.529573935544	3.8751220703125E-05	0.497955322265625
781	0.49560546875	25.5539739354824	3.8555908203125E-05	0.495513916015625
782	0.4931640625	25.5783739354208	3.709716796875E-05	0.4930419921875
783	0.49072265625	25.6027739353592	3.65203857421875E-05	0.4906005859375
784	0.48828125	25.6271739352976	3.63525390625E-05	0.4881591796875
785	0.48583984375	25.651573935236	3.50982666015625E-05	0.485748291015625
786	0.4833984375	25.6759739351744	3.48480224609375E-05	0.4832763671875
787	0.48095703125	25.7003739351128	3.310546875E-05	0.4808349609375
788	0.478515625	25.7247739350512	3.388671875E-05	0.4783935546875
789	0.47607421875	25.7491739349896	3.28887939453125E-05	0.47601318359375
790	0.4736328125	25.773573934928	3.25897216796875E-05	0.47357177734375
791	0.47119140625	25.7979739348664	3.13140869140625E-05	0.471160888671875
792	0.46875	25.8223739348048	3.12164306640625E-05	0.468719482421875
793	0.46630859375	25.8467739347432	3.00689697265625E-05	0.466217041015625
794	0.4638671875	25.8711739346816	2.8973388671875E-05	0.463775634765625
795	0.46142578125	25.89557393462	2.98858642578125E-05	0.461395263671875
796	0.458984375	25.9199739345584	2.796630859375E-05	0.458892822265625
797	0.45654296875	25.9443739344968	2.77740478515625E-05	0.456451416015625
798	0.4541015625	25.9687739344351	2.6666259765625E-05	0.454010009765625
799	0.45166015625	25.9931739343735	2.58758544921875E-05	0.45159912109375
800	0.44921875	26.0175739343119	2.586669921875E-05	0.44915771484375
801	0.44677734375	26.0419739342503	2.44476318359375E-05	0.44671630859375
802	0.4443359375	26.0663739341887	2.51007080078125E-05	0.444305419921875
803	0.44189453125	26.0907739341271	2.32757568359375E-05	0.441864013671875
804	0.439453125	26.1151739340655	2.333984375E-05	0.439361572265625
805	0.43701171875	26.1395739340039	2.27569580078125E-05	0.43701171875
806	0.4345703125	26.1639739339423	2.2686767578125E-05	0.43450927734375
807	0.43212890625	26.1883739338807	2.261962890625E-05	0.43206787109375
808	0.4296875	26.2127739338191	2.1514892578125E-05	0.42962646484375
809	0.42724609375	26.2371739337575	2.142333984375E-05	0.427215576171875
810	0.4248046875	26.2615739336959	2.0745849609375E-05	0.424774169921875
811	0.42236328125	26.2859739336343	2.039794921875E-05	0.422332763671875
812	0.419921875	26.3103739335727	1.9635009765625E-05	0.41986083984375
813	0.41748046875	26.3347739335111	1.9927978515625E-05	0.417510986328125
814	0.4150390625	26.3591739334495	1.9671630859375E-05	0.4150390625
815	0.41259765625	26.3835739333879	1.86859130859375E-05	0.41253662109375
816	0.41015625	26.4079739333263	1.881103515625E-05	0.41015625
817	0.40771484375	26.4323739332647	1.8255615234375E-05	0.407623291015625
818	0.4052734375	26.4567739332031	1.798095703125E-05	0.4052734375
819	0.40283203125	26.4811739331415	1.669921875E-05	0.40283203125
820	0.400390625	26.5055739330799	1.61285400390625E-05	0.40032958984375
821	0.39794921875	26.5299739330183	1.58447265625E-05	0.39794921875
822	0.3955078125	26.5543739329567	1.485595703125E-05	0.3955078125
823	0.39306640625	26.578773932895	1.48651123046875E-05	0.393035888671875
824	0.390625	26.6031739328334	1.405029296875E-05	0.390594482421875
825	0.38818359375	26.6275739327718	1.435546875E-05	0.38818359375
826	0.3857421875	26.6519739327102	1.3458251953125E-05	0.385711669921875
827	0.38330078125	26.6763739326486	1.3702392578125E-05	0.38323974609375
828	0.380859375	26.700773932587	1.28082275390625E-05	0.380859375
829	0.37841796875	26.7251739325254	1.204833984375E-05	0.37841796875
830	0.3759765625	26.7495739324638	1.1419677734375E-05	0.376007080078125
831	0.37353515625	26.7739739324022	1.0955810546875E-05	0.373504638671875
832	0.37109375	26.7983739323406	1.138916015625E-05	0.37109375
833	0.36865234375	26.822773932279	1.04248046875E-05	0.36865234375
834	0.3662109375	26.8471739322174	1.014404296875E-05	0.366180419921875
835	0.36376953125	26.8715739321558	1.0064697265625E-05	0.36370849609375
836	0.361328125	26.8959739320942	9.19189453125E-06	0.361328125
837	0.35888671875	26.9203739320326	9.820556640625E-06	0.35888671875
838	0.3564453125	26.944773931971	8.3404541015625E-06	0.35638427734375
839	0.35400390625	26.9691739319094	9.2254638671875E-06	0.354034423828125
840	0.3515625	26.9935739318478	8.0902099609375E-06	0.3515625
841	0.34912109375	27.0179739317862	7.8643798828125E-06	0.3489990234375
842	0.3466796875	27.0423739317246	7.4462890625E-06	0.34661865234375
843	0.34423828125	27.066773931663	6.2957763671875E-06	0.344085693359375
844	0.341796875	27.0911739316014	6.8695068359375E-06	0.341705322265625
845	0.33935546875	27.1155739315398	5.8349609375E-06	0.3392333984375
846	0.3369140625	27.1399739314782	6.4727783203125E-06	0.3367919921875
847	0.33447265625	27.1643739314165	5.4962158203125E-06	0.33428955078125
848	0.33203125	27.1887739313549	4.9591064453125E-06	0.3319091796875
849	0.32958984375	27.2131739312933	4.632568359375E-06	0.329498291015625
850	0.3271484375	27.2375739312317	4.37408447265625E-06	0.32708740234375
851	0.32470703125	27.2619739311701	4.1290283203125E-06	0.324615478515625
852	0.322265625	27.2863739311085	3.060302734375E-06	0.32220458984375
853	0.31982421875	27.3107739310469	4.02374267578125E-06	0.319793701171875
854	0.3173828125	27.3351739309853	2.76519775390625E-06	0.317352294921875
855	0.31494140625	27.3595739309237	3.21929931640625E-06	0.31494140625
856	0.3125	27.3839739308621	2.40081787109375E-06	0.3125
857	0.31005859375	27.4083739308005	2.03369140625E-06	0.30999755859375
858	0.3076171875	27.4327739307389	2.15240478515625E-06	0.30755615234375
859	0.30517578125	27.4571739306773	1.07391357421875E-06	0.30511474609375
860	0.302734375	27.4815739306157	1.3470458984375E-06	0.302734375
861	0.30029296875	27.5059739305541	8.9111328125E-08	0.30023193359375
862	0.2978515625	27.5303739304925	7.916259765625E-07	0.297882080078125
863	0.29541015625	27.5547739304309	-6.011962890625E-08	0.29541015625
864	0.29296875	27.5791739303693	1.7730712890625E-07	0.292999267578125
865	0.29052734375	27.6035739303077	-9.002685546875E-08	0.29052734375
866	0.2880859375	27.6279739302461	-1.3104248046875E-06	0.288299560546875
867	0.28564453125	27.6523739301845	-1.1480712890625E-06	0.285888671875
868	0.283203125	27.6767739301229	-1.87042236328125E-06	0.283233642578125
869	0.28076171875	27.7011739300613	-1.29669189453125E-06	0.281005859375
870	0.2783203125	27.7255739299997	-2.47589111328125E-06	0.278472900390625
871	0.27587890625	27.7499739299381	-2.738037109375E-06	0.276397705078125
872	0.2734375	27.7743739298764	-2.51190185546875E-06	0.27374267578125
873	0.27099609375	27.7987739298148	-3.25714111328125E-06	0.271575927734375
874	0.2685546875	27.8231739297532	-2.9779052734375E-06	0.2685546875
875	0.26611328125	27.8475739296916	-3.87969970703125E-06	0.26617431640625
876	0.263671875	27.87197392963	-3.5003662109375E-06	0.26373291015625
877	0.26123046875	27.8963739295684	-4.2449951171875E-06	0.261383056640625
878	0.2587890625	27.9207739295068	-4.5013427734375E-06	0.258880615234375
879	0.25634765625	27.9451739294452	-4.5196533203125E-06	0.25640869140625
880	0.25390625	27.9695739293836	-5.157470703125E-06	0.253936767578125
881	0.25146484375	27.993973929322	-4.8980712890625E-06	0.2515869140625
882	0.2490234375	28.0183739292604	-6.170654296875E-06	0.249053955078125
883	0.24658203125	28.0427739291988	-5.4168701171875E-06	0.24664306640625
884	0.244140625	28.0671739291372	-6.2103271484375E-06	0.244140625
885	0.24169921875	28.0915739290756	-6.3568115234375E-06	0.241790771484375
886	0.2392578125	28.115973929014	-6.7138671875E-06	0.239288330078125
887	0.23681640625	28.1403739289524	-7.2540283203125E-06	0.2369384765625
888	0.234375	28.1647739288908	-6.8572998046875E-06	0.234466552734375
889	0.23193359375	28.1891739288292	-8.14208984375E-06	0.232025146484375
890	0.2294921875	28.2135739287676	-7.373046875E-06	0.229583740234375
891	0.22705078125	28.237973928706	-8.465576171875E-06	0.227142333984375
892	0.224609375	28.2623739286444	-8.4014892578125E-06	0.22467041015625
893	0.22216796875	28.2867739285828	-9.002685546875E-06	0.222320556640625
894	0.2197265625	28.3111739285212	-9.5550537109375E-06	0.21990966796875
895	0.21728515625	28.3355739284596	-9.21630859375E-06	0.217437744140625
896	0.21484375	28.3599739283979	-1.0418701171875E-05	0.2149658203125
897	0.21240234375	28.3843739283363	-9.619140625E-06	0.212554931640625
898	0.2099609375	28.4087739282747	-1.08612060546875E-05	0.210052490234375
899	0.20751953125	28.4331739282131	-1.0821533203125E-05	0.207672119140625
900	0.205078125	28.4575739281515	-1.13555908203125E-05	0.2052001953125
901	0.20263671875	28.4819739280899	-1.19903564453125E-05	0.202911376953125
902	0.2001953125	28.5063739280283	-1.19537353515625E-05	0.20037841796875
903	0.19775390625	28.5307739279667	-1.2884521484375E-05	0.19793701171875
904	0.1953125	28.5551739279051	-1.2506103515625E-05	0.19549560546875
905	0.19287109375	28.5795739278435	-1.34246826171875E-05	0.19305419921875
906	0.1904296875	28.6039739277819	-1.29852294921875E-05	0.19061279296875
907	0.18798828125	28.6283739277203	-1.353759765625E-05	0.18817138671875
908	0.185546875	28.6527739276587	-1.407470703125E-05	0.185760498046875
909	0.18310546875	28.6771739275971	-1.37725830078125E-05	0.18328857421875
910	0.1806640625	28.7015739275355	-1.478271484375E-05	0.18084716796875
911	0.17822265625	28.7259739274739	-1.419677734375E-05	0.178436279296875
912	0.17578125	28.7503739274123	-1.5130615234375E-05	0.17596435546875
913	0.17333984375	28.7747739273507	-1.48040771484375E-05	0.173553466796875
914	0.1708984375	28.7991739272891	-1.561279296875E-05	0.171112060546875
915	0.16845703125	28.8235739272275	-1.5625E-05	0.168731689453125
916	0.166015625	28.8479739271659	-1.580810546875E-05	0.166259765625
917	0.16357421875	28.8723739271043	-1.68304443359375E-05	0.163848876953125
918	0.1611328125	28.8967739270427	-1.6302490234375E-05	0.161376953125
919	0.15869140625	28.9211739269811	-1.7291259765625E-05	0.158905029296875
920	0.15625	28.9455739269195	-1.68792724609375E-05	0.156494140625
921	0.15380859375	28.9699739268578	-1.7633056640625E-05	0.154022216796875
922	0.1513671875	28.9943739267962	-1.78741455078125E-05	0.151611328125
923	0.14892578125	29.0187739267346	-1.787109375E-05	0.149169921875
924	0.146484375	29.043173926673	-1.86798095703125E-05	0.146820068359375
925	0.14404296875	29.0675739266114	-1.82159423828125E-05	0.14434814453125
926	0.1416015625	29.0919739265498	-1.9403076171875E-05	0.14190673828125
927	0.13916015625	29.1163739264882	-1.8951416015625E-05	0.139434814453125
928	0.13671875	29.1407739264266	-1.9677734375E-05	0.137054443359375
929	0.13427734375	29.165173926365	-1.95404052734375E-05	0.134613037109375
930	0.1318359375	29.1895739263034	-1.99493408203125E-05	0.13214111328125
931	0.12939453125	29.2139739262418	-2.0654296875E-05	0.129669189453125
932	0.126953125	29.2383739261802	-2.01873779296875E-05	0.127349853515625
933	0.12451171875	29.2627739261186	-2.1356201171875E-05	0.124847412109375
934	0.1220703125	29.287173926057	-2.078857421875E-05	0.122406005859375
935	0.11962890625	29.3115739259954	-2.16827392578125E-05	0.120025634765625
936	0.1171875	29.3359739259338	-2.20001220703125E-05	0.117523193359375
937	0.11474609375	29.3603739258722	-2.2149658203125E-05	0.11505126953125
938	0.1123046875	29.3847739258106	-2.271728515625E-05	0.11273193359375
939	0.10986328125	29.409173925749	-2.2344970703125E-05	0.1102294921875
940	0.107421875	29.4335739256874	-2.34954833984375E-05	0.107818603515625
941	0.10498046875	29.4579739256258	-2.2900390625E-05	0.105377197265625
942	0.1025390625	29.4823739255642	-2.37274169921875E-05	0.1029052734375
943	0.10009765625	29.5067739255026	-2.36419677734375E-05	0.100433349609375
944	0.09765625	29.531173925441	-2.41851806640625E-05	0.09808349609375
945	0.09521484375	29.5555739253793	-2.46734619140625E-05	0.095611572265625
946	0.0927734375	29.5799739253177	-2.4267578125E-05	0.09320068359375
947	0.09033203125	29.6043739252561	-2.5225830078125E-05	0.09075927734375
948	0.087890625	29.6287739251945	-2.479248046875E-05	0.088287353515625
949	0.08544921875	29.6531739251329	-2.591552734375E-05	0.0858154296875
950	0.0830078125	29.6775739250713	-2.59307861328125E-05	0.08349609375
951	0.08056640625	29.7019739250097	-2.62176513671875E-05	0.08099365234375
952	0.078125	29.7263739249481	-2.6617431640625E-05	0.078582763671875
953	0.07568359375	29.7507739248865	-2.6458740234375E-05	0.076141357421875
954	0.0732421875	29.7751739248249	-2.7593994140625E-05	0.073638916015625
955	0.07080078125	29.7995739247633	-2.70263671875E-05	0.07122802734375
956	0.068359375	29.8239739247017	-2.80303955078125E-05	0.06878662109375
957	0.06591796875	29.8483739246401	-2.76153564453125E-05	0.06646728515625
958	0.0634765625	29.8727739245785	-2.8350830078125E-05	0.063995361328125
959	0.06103515625	29.8971739245169	-2.89093017578125E-05	0.0615234375
960	0.05859375	29.9215739244553	-2.87872314453125E-05	0.05908203125
961	0.05615234375	29.9459739243937	-2.9693603515625E-05	0.05670166015625
962	0.0537109375	29.9703739243321	-2.921142578125E-05	0.0543212890625
963	0.05126953125	29.9947739242705	-3.038330078125E-05	0.0517578125
964	0.048828125	30.0191739242089	-3.00262451171875E-05	0.0489715576171875
965	0.04638671875	30.0435739241473	-3.06488037109375E-05	0.04652099609375
966	0.0439453125	30.0679739240857	-3.08837890625E-05	0.044122314453125
967	0.04150390625	30.0923739240241	-3.09112548828125E-05	0.04166259765625
968	0.0390625	30.1167739239625	-3.18206787109375E-05	0.039208984375
969	0.03662109375	30.1411739239009	-3.12530517578125E-05	0.0367645263671875
970	0.0341796875	30.1655739238392	-3.2293701171875E-05	0.034344482421875
971	0.03173828125	30.1899739237776	-3.18084716796875E-05	0.03189697265625
972	0.029296875	30.214373923716	-3.25836181640625E-05	0.0294586181640625
973	0.02685546875	30.2387739236544	-3.27545166015625E-05	0.027001953125
974	0.0244140625	30.2631739235928	-3.28338623046875E-05	0.024554443359375
975	0.02197265625	30.2875739235312	-3.35235595703125E-05	0.022137451171875
976	0.01953125	30.3119739234696	-3.30841064453125E-05	0.0196685791015625
977	0.01708984375	30.336373923408	-3.4222412109375E-05	0.017230224609375
978	0.0146484375	30.3607739233464	-3.36578369140625E-05	0.0148040771484375
979	0.01220703125	30.3851739232848	-3.43841552734375E-05	0.0123626708984375
980	0.009765625	30.4095739232232	-3.4405517578125E-05	0.0099365234375
981	0.00732421875	30.4339739231616	-3.46527099609375E-05	0.00750732421875
982	0.0048828125	30.4583739231	-3.5400390625E-05	0.0050628662109375
983	0.00244140625	30.4827739230384	-3.50006103515625E-05	0.00260314941406251
984	0	30.5071739229768	-3.602294921875E-05	0.000143432617187494
985	0.00244140625	30.5315739229152	-3.485107421875E-05	0.0026092529296875
986	0.0048828125	30.5559739228536	-3.52264404296875E-05	0.0050323486328125
