Index	Time (s)	WE(1).Potential (V)	Corrected time (s)	dWE(1).Potential/dt (V/s)	OCP value (V)
1	31.5908519202408	0.268157958984375	0	0	0.277819764380361
2	31.6908519199883	0.26983642578125	0.0999999997475243	0.0167849250137806	
3	31.7908519197358	0.272491455078125	0.199999999495049	0.0314335860311985	
4	31.8908519194833	0.270843505859375	0.299999999242573	-0.0555937029421329	
5	31.9908519192309	0.26910400390625	0.399999998990097	-0.00381475547328591	
6	32.0908519189784	0.270233154296875	0.499999998737621	0.0355026572942734	
7	32.1908519187259	0.271026611328125	0.599999998485146	-0.00442511634901166	
8	32.2908519184734	0.27252197265625	0.69999999823267	0.0219221282750368	
9	32.390851918221	0.276885986328125	0.799999997980194	0.0652068853378296	
10	32.4908519179685	0.27667236328125	0.899999997727718	-0.049846138805151	
11	32.590851917716	0.277374267578125	0.999999997475243	0.0299076829105616	
12	32.6908519174635	0.278228759765625	1.09999999722277	0.00676483288407326	
13	32.7908519172111	0.2794189453125	1.19999999697029	0.0141908908262849	
14	32.8908519169586	0.277496337890625	1.29999999671782	-0.0462857000529766	
15	32.9908519167061	0.276824951171875	1.39999999646534	0.0140891633927822	
16	33.0908519164536	0.277862548828125	1.49999999621286	0.0204470902681351	
17	33.1908519162012	0.2784423828125	1.59999999596039	-0.00371302873827517	
18	33.2908519159487	0.2811279296875	1.69999999570791	0.0459296554327011	
19	33.3908519156962	0.27947998046875	1.79999999545544	-0.0596119128167629	
20	33.4908519154437	0.279083251953125	1.89999999520296	0.0209048595279455	
21	33.5908519151913	0.277587890625	1.99999999495049	-0.0282800532877445	
22	33.6908519149388	0.277984619140625	2.09999999469801	0.0233971662819386	
23	33.7908519146863	0.27850341796875	2.19999999444553	-0.000101726815046277	
24	33.8908519144338	0.280548095703125	2.29999999419306	0.0327560342848301	
25	33.9908519141813	0.28265380859375	2.39999999394058	0.0164797436445951	
26	34.0908519139289	0.2821044921875	2.49999999368811	-0.0278222840279341	
27	34.1908519136764	0.280670166015625	2.59999999343563	-0.0128684416413307	
28	34.2908519134239	0.280975341796875	2.69999999318316	0.0204979535192251	
29	34.3908519131714	0.283660888671875	2.79999999293068	0.0408941805362701	
30	34.490851912919	0.282501220703125	2.8999999926782	-0.051575493067503	
31	34.5908519126665	0.279693603515625	2.99999999242573	-0.0289921425282955	
32	34.690851912414	0.28021240234375	3.09999999217325	0.038401871919632	
33	34.7908519121615	0.28070068359375	3.19999999192078	-0.00645965244621038	
34	34.8908519119091	0.28466796875	3.2999999916683	0.068767324090004	
35	34.9908519116566	0.283355712890625	3.39999999141583	-0.0687164589762688	
36	35.0908519114041	0.282135009765625	3.49999999116335	0.00615447200834751	
37	35.1908519111516	0.27886962890625	3.59999999091087	-0.049998726695776	
38	35.2908519108992	0.2799072265625	3.6999999906584	0.0530505329370499	
39	35.3908519106467	0.27972412109375	3.79999999040592	-0.0263472441583872	
40	35.4908519103942	0.281005859375	3.89999999015345	0.0290938690304756	
41	35.5908519101417	0.283447265625	3.99999998990097	0.0291955955326557	
42	35.6908519098893	0.284912109375	4.0999999896485	0.00264489720575511	
43	35.7908519096368	0.2843017578125	4.19999998939602	-0.0201419088989496	
44	35.8908519093843	0.28460693359375	4.29999998914354	0.0175987388938665	
45	35.9908519091318	0.28424072265625	4.39999998889107	-0.012308944016695	
46	36.0908519088794	0.282379150390625	4.49999998863859	-0.0288395509123802	
47	36.1908519086269	0.283172607421875	4.59999998838612	0.0350448861718178	
48	36.2908519083744	0.285675048828125	4.69999998813364	0.0304163172841072	
49	36.3908519081219	0.283966064453125	4.79999998788116	-0.0578825548291206	
50	36.4908519078695	0.28399658203125	4.89999998762869	0.0288395509123802	
51	36.590851907617	0.282989501953125	4.99999998737621	-0.0245161615312099	
52	36.6908519073645	0.281829833984375	5.09999998712374	-0.00940973032265902	
53	36.790851907112	0.2828369140625	5.19999998687126	0.02863609790802	
54	36.8908519068596	0.281219482421875	5.29999998661879	-0.0452684313058853	
55	36.9908519066071	0.28082275390625	5.39999998636631	0.0149538414552808	
56	37.0908519063546	0.282012939453125	5.49999998611383	0.0210574511438608	
57	37.1908519061021	0.2838134765625	5.59999998586136	0.0178021918982267	
58	37.2908519058496	0.28607177734375	5.69999998560888	0.0243635717779398	
59	37.3908519055972	0.2850341796875	5.79999998535641	-0.0393682755529881	
60	37.4908519053447	0.284027099609375	5.89999998510393	0.00116985838394612	
61	37.5908519050922	0.282012939453125	5.99999998485146	-0.02863609790802	
62	37.6908519048397	0.28271484375	6.09999998459898	0.0330103524029255	
63	37.7908519045873	0.28179931640625	6.1999999843465	-0.0316879004240036	
64	37.8908519043348	0.27874755859375	6.29999998409403	-0.0429287143051624	
65	37.9908519040823	0.279022216796875	6.39999998384155	0.0375880561769009	
66	38.0908519038298	0.280914306640625	6.49999998358908	0.0213117673993111	
67	38.1908519035774	0.281494140625	6.5999999833366	-0.0105287255719304	
68	38.2908519033249	0.278106689453125	6.69999998308413	-0.0625619888305664	
69	38.3908519030724	0.277191162109375	6.79999998283165	0.0246687512844801	
70	38.4908519028199	0.27777099609375	6.89999998257917	0.0100200911983848	
71	38.5908519025675	0.2777099609375	6.9999999823267	-0.0109356325119734	
72	38.690851902315	0.27685546875	7.09999998207422	-0.0130210323259234	
73	38.7908519020625	0.27978515625	7.19999998182175	0.0634775310754776	
74	38.89085190181	0.28082275390625	7.29999998156927	-0.0180056467652321	
75	38.9908519015576	0.28448486328125	7.3999999813168	0.0647999793291092	
76	39.0908519013051	0.281097412109375	7.49999998106432	-0.101370766758919	
77	39.1908519010526	0.2828369140625	7.59999998081184	0.0836194381117821	
78	39.2908519008001	0.281097412109375	7.69999998055937	-0.0634775310754776	
79	39.3908519005477	0.27520751953125	7.79999998030689	-0.0818900838494301	
80	39.4908519002952	0.276031494140625	7.89999998005442	0.0780244618654251	
81	39.5908519000427	0.275787353515625	7.99999997980194	-0.0337224379181862	
82	39.6908518997902	0.278594970703125	8.09999997954947	0.0570687428116798	
83	39.7908518995378	0.2801513671875	8.19999997929699	-0.00503547722473741	
84	39.8908518992853	0.278961181640625	8.29999997904451	-0.0306197702884674	
85	39.9908518990328	0.279541015625	8.39999997879204	0.0297042299062014	
86	40.0908518987803	0.279571533203125	8.49999997853956	-0.0101726809516549	
87	40.1908518985279	0.2783203125	8.59999997828709	-0.0213626306504011	
88	40.2908518982754	0.275299072265625	8.69999997803461	-0.0406907238066196	
89	40.3908518980229	0.28021240234375	8.79999997778214	0.121156632900238	
90	40.4908518977704	0.28076171875	8.89999997752966	-0.0573230572044849	
91	40.590851897518	0.282562255859375	8.99999997727718	0.0429795794188976	
92	40.6908518972655	0.27923583984375	9.09999997702471	-0.0801607295870781	
93	40.790851897013	0.277130126953125	9.19999997677223	0.00620533572509885	
94	40.8908518967605	0.2763671875	9.29999997651976	-0.000508634082507342	
95	40.990851896508	0.274078369140625	9.39999997626728	-0.040080364793539	
96	41.0908518962556	0.275390625	9.49999997601481	0.0482185110449791	
97	41.1908518960031	0.27392578125	9.59999997576233	-0.0497952736914158	
98	41.2908518957506	0.277313232421875	9.69999997550985	0.0835685729980469	
99	41.3908518954981	0.279388427734375	9.79999997525738	-0.00635792594403028	
100	41.4908518952457	0.27838134765625	9.8999999750049	-0.0313827209174633	
101	41.5908518949932	0.275726318359375	9.99999997475243	-0.0300094094127417	
102	41.6908518947407	0.274749755859375	10.0999999745	0.00971491076052189	
103	41.7908518944882	0.27410888671875	10.1999999742475	-0.00920627638697624	
104	41.8908518942358	0.271881103515625	10.299999973995	-0.0366216525435448	
105	41.9908518939833	0.27581787109375	10.3999999737425	0.0960301086306572	
106	42.0908518937308	0.2767333984375	10.49999997349	-0.0365707874298096	
107	42.1908518934783	0.27783203125	10.5999999732376	0.0225833524018526	
108	42.2908518932259	0.2744140625	10.6999999729851	-0.0724294930696487	
109	42.3908518929734	0.274169921875	10.7999999727326	0.0390630960464478	
110	42.4908518927209	0.271087646484375	10.8999999724801	-0.0650542974472046	
111	42.5908518924684	0.273284912109375	10.9999999722277	0.0754304304718971	
112	42.690851892216	0.27105712890625	11.0999999719752	-0.0767528787255287	
113	42.7908518919635	0.272674560546875	11.1999999717227	0.0629688948392868	
114	42.890851891711	0.2720947265625	11.2999999714702	-0.0369268320500851	
115	42.9908518914585	0.27520751953125	11.3999999712178	0.0692250952124596	
116	43.0908518912061	0.273590087890625	11.4999999709653	-0.067902646958828	
117	43.1908518909536	0.272613525390625	11.5999999707128	0.0113425394520164	
118	43.2908518907011	0.271026611328125	11.6999999704603	-0.0230919867753983	
119	43.3908518904486	0.275848388671875	11.7999999702079	0.103659622371197	
120	43.4908518901962	0.274627685546875	11.8999999699554	-0.0839246213436127	
121	43.5908518899437	0.27569580078125	11.9999999697029	0.0498970001935959	
122	43.6908518896912	0.27264404296875	12.0999999694504	-0.0724803507328033	
123	43.7908518894387	0.275634765625	12.199999969198	0.0939955785870552	
124	43.8908518891863	0.272735595703125	12.2999999689455	-0.0982172340154648	
125	43.9908518889338	0.272216796875	12.399999968693	0.0342819355428219	
126	44.0908518886813	0.274627685546875	12.4999999684405	0.0405889973044395	
127	44.1908518884288	0.274658203125	12.5999999681881	-0.0292973220348358	
128	44.2908518881763	0.271575927734375	12.6999999679356	-0.0488288700580597	
129	44.3908518879239	0.273284912109375	12.7999999676831	0.0673940107226372	
130	44.4908518876714	0.275848388671875	12.8999999674306	0.0167849250137806	
131	44.5908518874189	0.275054931640625	12.9999999671782	-0.0387579165399075	
132	44.6908518871664	0.2744140625	13.0999999669257	0.00605274550616741	
133	44.790851886914	0.274810791015625	13.1999999666732	0.0121054910123348	
134	44.8908518866615	0.272369384765625	13.2999999664207	-0.0515246316790581	
135	44.990851886409	0.275634765625	13.3999999661683	0.0896721854805946	
136	45.0908518861565	0.274322509765625	13.4999999659158	-0.0702932253479958	
137	45.1908518859041	0.27642822265625	13.5999999656633	0.0647999793291092	
138	45.2908518856516	0.275146484375	13.6999999654108	-0.052440170198679	
139	45.3908518853991	0.2783203125	13.7999999651583	0.0801607295870781	
140	45.4908518851466	0.275604248046875	13.8999999649059	-0.0910963639616966	
141	45.5908518848942	0.275604248046875	13.9999999646534	0.0422674901783466	
142	45.6908518846417	0.27813720703125	14.0999999644009	0.0373846031725407	
143	45.7908518843892	0.27557373046875	14.1999999641484	-0.0765494257211685	
144	45.8908518841367	0.27349853515625	14.299999963896	0.000305180437862873	
145	45.9908518838843	0.2762451171875	14.3999999636435	0.066020704805851	
146	46.0908518836318	0.278533935546875	14.499999963391	0.00300094089470804	
147	46.1908518833793	0.278045654296875	14.5999999631385	-0.0264998339116573	
148	46.2908518831268	0.27227783203125	14.6999999628861	-0.0924188122153282	
149	46.3908518828744	0.274505615234375	14.7999999626336	0.10650797188282	
150	46.4908518826219	0.27545166015625	14.8999999623811	-0.0278731472790241	
151	46.5908518823694	0.273406982421875	14.9999999621286	-0.0410976335406303	
152	46.6908518821169	0.273681640625	15.0999999618762	0.0320439450442791	
153	46.7908518818645	0.275390625	15.1999999616237	0.0213117673993111	
154	46.890851881612	0.2734375	15.2999999613712	-0.0548307523131371	
155	46.9908518813595	0.277008056640625	15.3999999611187	0.09394471347332	
156	47.090851881107	0.277679443359375	15.4999999608663	-0.0358587019145489	
157	47.1908518808546	0.27783203125	15.5999999606138	0.00686655985191464	
158	47.2908518806021	0.280303955078125	15.6999999603613	0.0457770675420761	
159	47.3908518803496	0.274322509765625	15.7999999601088	-0.137992426753044	
160	47.4908518800971	0.275970458984375	15.8999999598564	0.108237326145172	
161	47.5908518798446	0.27783203125	15.9999999596039	-0.00503547722473741	
162	47.6908518795922	0.2752685546875	16.0999999593514	-0.0632232129573822	
163	47.7908518793397	0.2796630859375	16.1999999590989	0.116680651903152	
164	47.8908518790872	0.28082275390625	16.2999999588465	-0.0385544635355473	
165	47.9908518788347	0.27886962890625	16.399999958594	-0.0346888415515423	
166	48.0908518785823	0.2760009765625	16.4999999583415	-0.0259403381496668	
167	48.1908518783298	0.277618408203125	16.599999958089	0.0566109716892242	
168	48.2908518780773	0.2796630859375	16.6999999578366	0.00905368663370609	
169	48.3908518778248	0.279876708984375	16.7999999575841	-0.0145469345152378	
170	48.4908518775724	0.281005859375	16.8999999573316	0.0250247959047556	
171	48.5908518773199	0.279083251953125	16.9999999570791	-0.0477098748087883	
172	48.6908518770674	0.27801513671875	17.0999999568267	0.00661224266514182	
173	48.7908518768149	0.277984619140625	17.1999999565742	0.00549324788153172	
174	48.8908518765625	0.27764892578125	17.2999999563217	-0.00935886707156897	
175	48.99085187631	0.2774658203125	17.3999999560692	0.00045777065679431	
176	49.0908518760575	0.27606201171875	17.4999999558167	-0.0247196163982153	
177	49.190851875805	0.277008056640625	17.5999999555643	0.0331120789051056	
178	49.2908518755526	0.278961181640625	17.6999999553118	0.0200910456478596	
179	49.3908518753001	0.275299072265625	17.7999999550593	-0.0867729708552361	
180	49.4908518750476	0.27691650390625	17.8999999548068	0.0788891464471817	
181	49.5908518747951	0.2762451171875	17.9999999545544	-0.043386485427618	
182	49.6908518745427	0.27362060546875	18.0999999543019	-0.0348922982811928	
183	49.7908518742902	0.271820068359375	18.1999999540494	-0.00462856981903315	
184	49.8908518740377	0.278167724609375	18.2999999537969	0.128633558750153	
185	49.9908518737852	0.27508544921875	18.3999999535445	-0.136568248271942	
186	50.0908518735328	0.276214599609375	18.499999953292	0.0778210088610649	
187	50.1908518732803	0.27789306640625	18.5999999530395	0.00732433050870895	
188	50.2908518730278	0.275787353515625	18.699999952787	-0.0544238463044167	
189	50.3908518727753	0.273529052734375	18.7999999525346	-0.0112408129498363	
190	50.4908518725229	0.271942138671875	18.8999999522821	-0.00976577401161194	
191	50.5908518722704	0.27374267578125	18.9999999520296	0.0439968481659889	
192	50.6908518720179	0.2767333984375	19.0999999517771	0.0285343714058399	
193	50.7908518717654	0.277557373046875	19.1999999515247	-0.0137839829549193	
194	50.890851871513	0.278564453125	19.2999999512722	0.018819460645318	
195	50.9908518712605	0.27685546875	19.3999999510197	-0.0403346829116344	
196	51.090851871008	0.27813720703125	19.4999999507672	0.0467943325638771	
197	51.1908518707555	0.274993896484375	19.5999999505148	-0.0782787799835205	
198	51.290851870503	0.275390625	19.6999999502623	0.0482185110449791	
199	51.3908518702506	0.2764892578125	19.7999999500098	0.00503547722473741	
200	51.4908518699981	0.274444580078125	19.8999999497573	-0.048981461673975	
201	51.5908518697456	0.277557373046875	19.9999999495049	0.0845858454704285	
202	51.6908518694931	0.278167724609375	20.0999999492524	-0.031942218542099	
203	51.7908518692407	0.27496337890625	20.1999999489999	-0.0554919764399529	
204	51.8908518689882	0.275726318359375	20.2999999487474	0.0534065775573254	
205	51.9908518687357	0.274261474609375	20.399999948495	-0.0464382916688919	
206	52.0908518684832	0.2720947265625	20.4999999482425	-0.0200910456478596	
207	52.1908518682308	0.271636962890625	20.59999994799	0.0120037635788321	
208	52.2908518679783	0.271331787109375	20.6999999477375	-0.00747692072764039	
209	52.3908518677258	0.272979736328125	20.799999947485	0.0322473980486393	
210	52.4908518674733	0.27239990234375	20.8999999472326	-0.0308740884065628	
211	52.5908518672209	0.27294921875	20.9999999469801	0.0223290361464024	
212	52.6908518669684	0.27105712890625	21.0999999467276	-0.0430304408073425	
213	52.7908518667159	0.27020263671875	21.1999999464751	0.00823987182229757	
214	52.8908518664634	0.26727294921875	21.2999999462227	-0.0500495918095112	
215	52.990851866211	0.268646240234375	21.3999999459702	0.0565092451870441	
216	53.0908518659585	0.266326904296875	21.4999999457177	-0.0683095529675484	
217	53.190851865706	0.267364501953125	21.5999999454652	0.0506599545478821	
218	53.2908518654535	0.268951416015625	21.6999999452128	0.00925713963806629	
219	53.3908518652011	0.26873779296875	21.7999999449603	-0.0189720503985882	
220	53.4908518649486	0.265716552734375	21.8999999447078	-0.0476081483066082	
221	53.5908518646961	0.267303466796875	21.9999999444553	0.0636301189661026	
222	53.6908518644436	0.26568603515625	22.0999999442029	-0.0582385994493961	
223	53.7908518641912	0.269500732421875	22.1999999439504	0.094097301363945	
224	53.8908518639387	0.268035888671875	22.2999999436979	-0.0767528787255287	
225	53.9908518636862	0.267852783203125	22.3999999434454	0.0264489706605673	
226	54.0908518634337	0.269195556640625	22.499999943193	0.0218712650239468	
227	54.1908518631813	0.269622802734375	22.5999999429405	-0.00844332575798035	
228	54.2908518629288	0.269866943359375	22.699999942688	0.00396734569221735	
229	54.3908518626763	0.26959228515625	22.7999999424355	-0.00645965244621038	
230	54.4908518624238	0.266082763671875	22.8999999421831	-0.0603239983320236	
231	54.5908518621713	0.264251708984375	22.9999999419306	0.00645965244621038	
232	54.6908518619189	0.266845703125	23.0999999416781	0.0572213307023048	
233	54.7908518616664	0.27227783203125	23.1999999414256	0.0632232129573822	
234	54.8908518614139	0.26806640625	23.2999999411732	-0.131939679384232	
235	54.9908518611614	0.270965576171875	23.3999999409207	0.120393685996532	
236	55.090851860909	0.268310546875	23.4999999406682	-0.096538744866848	
237	55.1908518606565	0.26678466796875	23.5999999404157	0.0126649886369705	
238	55.290851860404	0.265869140625	23.6999999401633	-0.0078329648822546	
239	55.3908518601515	0.267486572265625	23.7999999399108	0.035248339176178	
240	55.4908518598991	0.267852783203125	23.8999999396583	-0.0152081586420536	
241	55.5908518596466	0.26788330078125	23.9999999394058	0.0016784924082458	
242	55.6908518593941	0.266937255859375	24.0999999391533	-0.0164797436445951	
243	55.7908518591416	0.268402099609375	24.1999999389009	0.0379949659109116	
244	55.8908518588892	0.26556396484375	24.2999999386484	-0.0722768977284431	
245	55.9908518586367	0.26806640625	24.3999999383959	0.0838737562298775	
246	56.0908518583842	0.26995849609375	24.4999999381434	-0.00396734569221735	
247	56.1908518581317	0.269439697265625	24.599999937891	-0.0232445765286684	
248	56.2908518578793	0.272308349609375	24.6999999376385	0.0649525672197342	
249	56.3908518576268	0.273712158203125	24.799999937386	-0.00946059357374907	
250	56.4908518573743	0.271728515625	24.8999999371335	-0.0431830324232578	
251	56.5908518571218	0.26812744140625	24.9999999368811	-0.0381984189152718	
252	56.6908518568694	0.269989013671875	25.0999999366286	0.0695302784442902	
253	56.7908518566169	0.27044677734375	25.1999999363761	-0.025329977273941	
254	56.8908518563644	0.268218994140625	25.2999999361236	-0.0399786382913589	
255	56.9908518561119	0.268402099609375	25.3999999358712	0.0308740884065628	
256	57.0908518558595	0.271697998046875	25.4999999356187	0.0508634075522423	
257	57.190851855607	0.2698974609375	25.5999999353662	-0.0708527266979218	
258	57.2908518553545	0.268157958984375	25.6999999351137	0.000101726815046277	
259	57.390851855102	0.272796630859375	25.7999999348613	0.0993362292647362	
260	57.4908518548496	0.269134521484375	25.8999999346088	-0.127056792378426	
261	57.5908518545971	0.26641845703125	25.9999999343563	0.0083924625068903	
262	57.6908518543446	0.2677001953125	26.0999999341038	0.0429795794188976	
263	57.7908518540921	0.267120361328125	26.1999999338514	-0.0346379801630974	
264	57.8908518538396	0.269378662109375	26.2999999335989	0.052440170198679	
265	57.9908518535872	0.267333984375	26.3999999333464	-0.0657663866877556	
266	58.0908518533347	0.26849365234375	26.4999999330939	0.0526436269283295	
267	58.1908518530822	0.266754150390625	26.5999999328415	-0.0522367171943188	
268	58.2908518528297	0.267913818359375	26.699999932589	0.0454210229218006	
269	58.3908518525773	0.2677001953125	26.7999999323365	-0.0232445765286684	
270	58.4908518523248	0.26434326171875	26.899999932084	-0.0551867969334126	
271	58.5908518520723	0.2666015625	26.9999999318316	0.0798555463552475	
272	58.6908518518198	0.267578125	27.0999999315791	-0.019633274525404	
273	58.7908518515674	0.268402099609375	27.1999999313266	0.0112408129498363	
274	58.8908518513149	0.269561767578125	27.2999999310741	0.0149029782041907	
275	58.9908518510624	0.269683837890625	27.3999999308217	-0.00854505226016045	
276	59.0908518508099	0.272064208984375	27.4999999305692	0.0460822470486164	
277	59.1908518505575	0.270965576171875	27.5999999303167	-0.0475064218044281	
278	59.290851850305	0.270263671875	27.6999999300642	0.00788382813334465	
279	59.3908518500525	0.268951416015625	27.7999999298117	-0.0195315480232239	
280	59.4908518498	0.269500732421875	27.8999999295593	0.0230411235243082	
281	59.5908518495476	0.267181396484375	27.9999999293068	-0.0533048510551453	
282	59.6908518492951	0.267791748046875	28.0999999290543	0.040080364793539	
283	59.7908518490426	0.267333984375	28.1999999288018	-0.0232445765286684	
284	59.8908518487901	0.26800537109375	28.2999999285494	0.019684137776494	
285	59.9908518485377	0.27178955078125	28.3999999282969	0.0600188188254833	
286	60.0908518482852	0.267242431640625	28.4999999280444	-0.125276565551758	
287	60.1908518480327	0.265777587890625	28.5999999277919	0.0388087779283524	
288	60.2908518477802	0.265899658203125	28.6999999275395	0.00417079916223884	
289	60.3908518475278	0.26641845703125	28.799999927287	0.00320439459756017	
290	60.4908518472753	0.26544189453125	28.8999999270345	-0.0235497578978539	
291	60.5908518470228	0.266632080078125	28.999999926782	0.0349431596696377	
292	60.6908518467703	0.26898193359375	29.0999999265296	0.0259403381496668	
293	60.7908518465179	0.26519775390625	29.1999999262771	-0.0928257182240486	
294	60.8908518462654	0.263336181640625	29.2999999260246	0.0178530551493168	
295	60.9908518460129	0.265106201171875	29.3999999257721	0.0415554046630859	
296	61.0908518457604	0.265106201171875	29.4999999255197	-0.0268558785319328	
297	61.190851845508	0.26824951171875	29.5999999252672	0.0635283961892128	
298	61.2908518452555	0.268768310546875	29.6999999250147	-0.0271610599011183	
299	61.390851845003	0.268646240234375	29.7999999247622	0.0021871265489608	
300	61.4908518447505	0.26947021484375	29.8999999245098	0.0182599630206823	
301	61.590851844498	0.26824951171875	29.9999999242573	-0.0323999896645546	
302	61.6908518442456	0.2667236328125	30.0999999240048	-0.0109864957630634	
303	61.7908518439931	0.26629638671875	30.1999999237523	0.00590015528723598	
304	61.8908518437406	0.269073486328125	30.2999999234999	0.0508125424385071	
305	61.9908518434881	0.26483154296875	30.3999999232474	-0.111594311892986	
306	62.0908518432357	0.267242431640625	30.4999999229949	0.102947533130646	
307	62.1908518429832	0.26483154296875	30.5999999227424	-0.0864677876234055	
308	62.2908518427307	0.265228271484375	30.69999992249	0.0434373505413532	
309	62.3908518424782	0.265838623046875	30.7999999222375	-0.00147503882180899	
310	62.4908518422258	0.264434814453125	30.899999921985	-0.0315353125333786	
311	62.5908518419733	0.265472412109375	30.9999999217325	0.0374354682862759	
312	62.6908518417208	0.262237548828125	31.09999992148	-0.0760916545987129	
313	62.7908518414683	0.265472412109375	31.1999999212276	0.100506089627743	
314	62.8908518412159	0.2655029296875	31.2999999209751	-0.0479641929268837	
315	62.9908518409634	0.262664794921875	31.3999999207226	-0.0416062660515308	
316	63.0908518407109	0.265228271484375	31.4999999204701	0.0802115947008133	
317	63.1908518404584	0.26605224609375	31.5999999202177	-0.0242618452757597	
318	63.290851840206	0.264373779296875	31.6999999199652	-0.0318404920399189	
319	63.3908518399535	0.26861572265625	31.7999999197127	0.100099183619022	
320	63.490851839701	0.266357421875	31.8999999194602	-0.0964878797531128	
321	63.5908518394485	0.2664794921875	31.9999999192078	0.0427252613008022	
322	63.6908518391961	0.267608642578125	32.0999999189553	0.0117494473233819	
323	63.7908518389436	0.265289306640625	32.1999999187028	-0.0552885234355927	
324	63.8908518386911	0.26800537109375	32.2999999184503	0.0806185007095337	
325	63.9908518384386	0.263916015625	32.3999999181979	-0.114391803741455	
326	64.0908518381862	0.264678955078125	32.4999999179454	0.0707509964704514	
327	64.1908518379337	0.264984130859375	32.5999999176929	-0.0169375147670507	
328	64.2908518376812	0.267669677734375	32.6999999174404	0.0482185110449791	
329	64.3908518374287	0.265106201171875	32.799999917188	-0.0773123800754547	
330	64.4908518371763	0.26800537109375	32.8999999169355	0.0920118987560272	
331	64.5908518369238	0.26397705078125	32.999999916683	-0.116222880780697	
332	64.6908518366713	0.26666259765625	33.0999999164305	0.10589761286974	
333	64.7908518364188	0.26837158203125	33.1999999161781	-0.0134279392659664	
334	64.8908518361663	0.26385498046875	33.2999999159256	-0.0937921181321144	
335	64.9908518359139	0.264556884765625	33.3999999156731	0.0712596327066422	
336	65.0908518356614	0.2677001953125	33.4999999154206	0.034383662045002	
337	65.1908518354089	0.267547607421875	33.5999999151682	-0.0371302850544453	
338	65.2908518351564	0.267547607421875	33.6999999149157	0.012258080765605	
339	65.390851834904	0.267364501953125	33.7999999146632	-0.00386561895720661	
340	65.4908518346515	0.269622802734375	33.8999999144107	0.0435390770435333	
341	65.590851834399	0.26708984375	33.9999999141583	-0.0733958929777145	
342	65.6908518341465	0.268646240234375	34.0999999139058	0.06561379134655	
343	65.7908518338941	0.26507568359375	34.1999999136533	-0.0920627638697624	
344	65.8908518336416	0.265289306640625	34.2999999134008	0.0507616810500622	
345	65.9908518333891	0.265838623046875	34.3999999131483	-0.00432338938117027	
346	66.0908518331366	0.2659912109375	34.4999999128959	-0.00289921415969729	
347	66.1908518328842	0.26397705078125	34.5999999126434	-0.0368759706616402	
348	66.2908518326317	0.26556396484375	34.6999999123909	0.0531013980507851	
349	66.3908518323792	0.26495361328125	34.7999999121384	-0.0364181995391846	
350	66.4908518321267	0.2626953125	34.899999911886	-0.0289921425282955	
351	66.5908518318743	0.263153076171875	34.9999999116335	0.0327051691710949	
352	66.6908518316218	0.261749267578125	35.099999911381	-0.0386053249239922	
353	66.7908518313693	0.264373779296875	35.1999999111285	0.066020704805851	
354	66.8908518311168	0.263092041015625	35.2999999108761	-0.0587980970740318	
355	66.9908518308644	0.2640380859375	35.3999999106236	0.0410467684268951	
356	67.0908518306119	0.265289306640625	35.4999999103711	0.00762951094657183	
357	67.1908518303594	0.264923095703125	35.5999999101186	-0.0181582365185022	
358	67.2908518301069	0.26153564453125	35.6999999098662	-0.0536608919501305	
359	67.3908518298545	0.2601318359375	35.7999999096137	0.0125632612034678	
360	67.490851829602	0.26214599609375	35.8999999093612	0.0420131720602512	
361	67.5908518293495	0.260009765625	35.9999999091087	-0.0673431530594826	
362	67.690851829097	0.26214599609375	36.0999999088563	0.0708018615841866	
363	67.7908518288446	0.26312255859375	36.1999999086038	-0.0141400266438723	
364	67.8908518285921	0.263763427734375	36.2999999083513	0.00747692072764039	
365	67.9908518283396	0.265655517578125	36.3999999080988	0.0304671805351973	
366	68.0908518280871	0.264190673828125	36.4999999078464	-0.0467943325638771	
367	68.1908518278346	0.262298583984375	36.5999999075939	-0.0112916762009263	
368	68.2908518275822	0.2623291015625	36.6999999073414	0.0177513286471367	
369	68.3908518273297	0.260498046875	36.7999999070889	-0.040232952684164	
370	68.4908518270772	0.2650146484375	36.8999999068365	0.104269981384277	
371	68.5908518268247	0.271392822265625	36.999999906584	0.058136872947216	
372	68.6908518265723	0.26708984375	37.0999999063315	-0.13824674487114	
373	68.7908518263198	0.2662353515625	37.199999906079	0.0557971559464931	
374	68.8908518260673	0.266754150390625	37.2999999058266	0.00513720419257879	
375	68.9908518258148	0.26470947265625	37.3999999055741	-0.0463874265551567	
376	69.0908518255624	0.264251708984375	37.4999999053216	0.017191831022501	
377	69.1908518253099	0.265655517578125	37.5999999050691	0.0242618452757597	
378	69.2908518250574	0.268646240234375	37.6999999048167	0.0369268320500851	
379	69.3908518248049	0.26959228515625	37.7999999045642	-0.0128684416413307	
380	69.4908518245525	0.270721435546875	37.8999999043117	0.019633274525404	
381	69.5908518243	0.267608642578125	37.9999999040592	-0.0670888349413872	
382	69.6908518240475	0.268951416015625	38.0999999038067	0.0646982565522194	
383	69.790851823795	0.267425537109375	38.1999999035543	-0.054016936570406	
384	69.8908518235426	0.26519775390625	38.2999999033018	-0.0185651425272226	
385	69.9908518232901	0.267608642578125	38.3999999030493	0.0651051625609398	
386	70.0908518230376	0.271148681640625	38.4999999027968	0.0293481852859259	
387	70.1908518227851	0.268707275390625	38.5999999025444	-0.0780244618654251	
388	70.2908518225327	0.265960693359375	38.6999999022919	-0.0100709544494748	
389	70.3908518222802	0.266510009765625	38.7999999020394	0.0339767560362816	
390	70.4908518220277	0.266815185546875	38.8999999017869	-0.00996922794729471	
391	70.5908518217752	0.267486572265625	38.9999999015345	0.0105795888230205	
392	70.6908518215228	0.267425537109375	39.099999901282	-0.0079346913844347	
393	70.7908518212703	0.267608642578125	39.1999999010295	0.00630706222727895	
394	70.8908518210178	0.26861572265625	39.299999900777	0.0161236990243196	
395	70.9908518207653	0.272979736328125	39.3999999005246	0.0688690543174744	
396	71.0908518205129	0.271026611328125	39.4999999002721	-0.0833651199936867	
397	71.1908518202604	0.270782470703125	39.5999999000196	0.0328577607870102	
398	71.2908518200079	0.27056884765625	39.6999998997671	-0.00757864769548178	
399	71.3908518197554	0.2666015625	39.7999998995147	-0.071056179702282	
400	71.490851819503	0.267333984375	39.8999998992622	0.059001550078392	
401	71.5908518192505	0.2667236328125	39.9999998990097	-0.0329594872891903	
402	71.690851818998	0.27044677734375	40.0999998987572	0.0778210088610649	
403	71.7908518187455	0.271942138671875	40.1999998985048	-0.0180565100163221	
404	71.890851818493	0.272430419921875	40.2999998982523	0.0039164824411273	
405	71.9908518182406	0.270904541015625	40.3999998979998	-0.0286869611591101	
406	72.0908518179881	0.272125244140625	40.4999998977473	0.041809719055891	
407	72.1908518177356	0.269439697265625	40.5999998974949	-0.0685638710856438	
408	72.2908518174831	0.271759033203125	40.6999998972424	0.0779227390885353	
409	72.3908518172307	0.270294189453125	40.7999998969899	-0.062867172062397	
410	72.4908518169782	0.271331787109375	40.8999998967374	0.0438442565500736	
411	72.5908518167257	0.271759033203125	40.999999896485	-0.00915541313588619	
412	72.6908518164732	0.27081298828125	41.0999998962325	-0.0188703238964081	
413	72.7908518162208	0.27032470703125	41.19999989598	0.00350957503542304	
414	72.8908518159683	0.26934814453125	41.2999998957275	-0.0153607483953238	
415	72.9908518157158	0.269439697265625	41.399999895475	0.011444266885519	
416	73.0908518154633	0.268829345703125	41.4999998952226	-0.0155133390799165	
417	73.1908518152109	0.266632080078125	41.5999998949701	-0.0328577607870102	
418	73.2908518149584	0.271484375	41.6999998947176	0.112560719251633	
419	73.3908518147059	0.267791748046875	41.7999998944651	-0.13163448870182	
420	73.4908518144534	0.267913818359375	41.8999998942127	0.0614938586950302	
421	73.590851814201	0.268798828125	41.9999998939602	0.00249230698682368	
422	73.6908518139485	0.26971435546875	42.0999998937077	0.00686655985191464	
423	73.790851813696	0.268951416015625	42.1999998934552	-0.0217186752706766	
424	73.8908518134435	0.26776123046875	42.2999998932028	-0.00986750051379204	
425	73.9908518131911	0.267242431640625	42.3999998929503	0.00183108262717724	
426	74.0908518129386	0.2645263671875	42.4999998926978	-0.0477098748087883	
427	74.1908518126861	0.26513671875	42.5999998924453	0.0411484949290752	
428	74.2908518124336	0.2652587890625	42.6999998921929	-0.0139365736395121	
429	74.3908518121812	0.2646484375	42.7999998919404	-0.0105795888230205	
430	74.4908518119287	0.2681884765625	42.8999998916879	0.0724294930696487	
431	74.5908518116762	0.26708984375	42.9999998914354	-0.0634775310754776	
432	74.6908518114237	0.265380859375	43.099999891183	-0.00671396963298321	
433	74.7908518111713	0.265625	43.1999998909305	0.0207522697746754	
434	74.8908518109188	0.266448974609375	43.299999890678	0.00656137941405177	
435	74.9908518106663	0.26654052734375	43.3999998904255	-0.00712087703868747	
436	75.0908518104138	0.266143798828125	43.4999998901731	-0.0055949748493731	
437	75.1908518101613	0.26861572265625	43.5999998899206	0.0502530448138714	
438	75.2908518099089	0.2706298828125	43.6999998896681	0.00676483288407326	
439	75.3908518096564	0.26605224609375	43.7999998894156	-0.0991836413741112	
440	75.4908518094039	0.2672119140625	43.8999998891632	0.0813814476132393	
441	75.5908518091514	0.267364501953125	43.9999998889107	-0.0259912014007568	
442	75.690851808899	0.26568603515625	44.0999998886582	-0.0286869611591101	
443	75.7908518086465	0.26837158203125	44.1999998884057	0.06932682543993	
444	75.890851808394	0.267364501953125	44.2999998881533	-0.0553902499377728	
445	75.9908518081415	0.268463134765625	44.3999998879008	0.0408433154225349	
446	76.0908518078891	0.26641845703125	44.4999998876483	-0.0536608919501305	
447	76.1908518076366	0.263885498046875	44.5999998873958	-0.0189211871474981	
448	76.2908518073841	0.26611328125	44.6999998871433	0.063579261302948	
449	76.3908518071316	0.263336181640625	44.7999998868909	-0.0853487923741341	
450	76.4908518068792	0.26226806640625	44.8999998866384	0.0202436354011297	
451	76.5908518066267	0.264739990234375	44.9999998863859	0.0485236905515194	
452	76.6908518063742	0.263519287109375	45.0999998861334	-0.0547798871994019	
453	76.7908518061217	0.265380859375	45.199999885881	0.0566109716892242	
454	76.8908518058693	0.262451171875	45.2999998856285	-0.0794995054602623	
455	76.9908518056168	0.26385498046875	45.399999885376	0.0661224275827408	
456	77.0908518053643	0.26593017578125	45.4999998851235	0.0119020370766521	
457	77.1908518051118	0.265106201171875	45.5999998848711	-0.0346379801630974	
458	77.2908518048594	0.263946533203125	45.6999998846186	-0.00473029678687453	
459	77.3908518046069	0.261749267578125	45.7999998843661	-0.029500775039196	
460	77.4908518043544	0.2662353515625	45.8999998841136	0.104015663266182	
461	77.5908518041019	0.265289306640625	45.9999998838612	-0.0770071968436241	
462	77.6908518038495	0.2633056640625	46.0999998836087	-0.0103761348873377	
463	77.790851803597	0.26422119140625	46.1999998833562	0.0367742441594601	
464	77.8908518033445	0.265655517578125	46.2999998831037	0.00900282338261604	
465	77.990851803092	0.26409912109375	46.3999998828513	-0.0422166287899017	
466	78.0908518028396	0.260833740234375	46.4999998825988	-0.0369268320500851	
467	78.1908518025871	0.261749267578125	46.5999998823463	0.0496935471892357	
468	78.2908518023346	0.264556884765625	46.6999998820938	0.0299076829105616	
469	78.3908518020821	0.265289306640625	46.7999998818414	-0.0162762906402349	
470	78.4908518018296	0.270050048828125	46.8999998815889	0.0880954191088676	
471	78.5908518015772	0.2679443359375	46.9999998813364	-0.0917067229747772	
472	78.6908518013247	0.27069091796875	47.0999998810839	0.090791180729866	
473	78.7908518010722	0.268524169921875	47.1999998808315	-0.0787874162197113	
474	78.8908518008197	0.26739501953125	47.299999880579	0.0137331197038293	
475	78.9908518005673	0.26287841796875	47.3999998803265	-0.0768546089529991	
476	79.0908518003148	0.269622802734375	47.499999880074	0.172579541802406	
477	79.1908518000623	0.268707275390625	47.5999998798216	-0.11052618175745	
478	79.2908517998098	0.271270751953125	47.6999998795691	0.0801607295870781	
479	79.3908517995574	0.26953125	47.7999998793166	-0.0648508444428444	
480	79.4908517993049	0.26556396484375	47.8999998790641	-0.0438951179385185	
481	79.5908517990524	0.2677001953125	47.9999998788116	0.0796520933508873	
482	79.6908517987999	0.266693115234375	48.0999998785592	-0.0566109716892242	
483	79.7908517985475	0.267059326171875	48.1999998783067	0.0255842935293913	
484	79.890851798295	0.269500732421875	48.2999998780542	0.0371302850544453	
485	79.9908517980425	0.268890380859375	48.3999998778017	-0.0384527370333672	
486	80.09085179779	0.270477294921875	48.4999998775493	0.0443528890609741	
487	80.1908517975376	0.27154541015625	48.5999998772968	-0.000966404739301652	
488	80.2908517972851	0.27105712890625	48.6999998770443	-0.0161236990243196	
489	80.3908517970326	0.269439697265625	48.7999998767918	-0.0203962251543999	
490	80.4908517967801	0.270751953125	48.8999998765394	0.0413010865449905	
491	80.5908517965277	0.2703857421875	48.9999998762869	-0.0274153761565685	
492	80.6908517962752	0.2735595703125	49.0999998760344	0.0668345168232918	
493	80.7908517960227	0.2742919921875	49.1999998757819	-0.0248213429003954	
494	80.8908517957702	0.270538330078125	49.2999998755295	-0.0667836517095566	
495	80.9908517955178	0.2711181640625	49.399999875277	0.0568652898073196	
496	81.0908517952653	0.27105712890625	49.4999998750245	-0.0203962251543999	
497	81.1908517950128	0.27008056640625	49.599999874772	-0.0152590218931437	
498	81.2908517947603	0.2694091796875	49.6999998745196	-0.00111899490002543	
499	81.3908517945079	0.269073486328125	49.7999998742671	-0.00157676555681974	
500	81.4908517942554	0.269256591796875	49.8999998740146	0.00503547722473741	
501	81.5908517940029	0.271942138671875	49.9999998737621	0.0459805205464363	
502	81.6908517937504	0.268096923828125	50.0999998735097	-0.101218178868294	
503	81.7908517934979	0.270782470703125	50.1999998732572	0.103049263358116	
504	81.8908517932455	0.267486572265625	50.2999998730047	-0.104575164616108	
505	81.990851792993	0.26641845703125	50.3999998727522	0.0278222840279341	
506	82.0908517927405	0.267242431640625	50.4999998724998	0.0165814701467752	
507	82.190851792488	0.266510009765625	50.5999998722473	-0.0266015622764826	
508	82.2908517922356	0.268035888671875	50.6999998719948	0.039266549050808	
509	82.3908517919831	0.269195556640625	50.7999998717423	0.00101726816501468	
510	82.4908517917306	0.272216796875	50.8999998714899	0.0469469241797924	
511	82.5908517914781	0.270050048828125	50.9999998712374	-0.0711070448160172	
512	82.6908517912257	0.270233154296875	51.0999998709849	0.0387070514261723	
513	82.7908517909732	0.26995849609375	51.1999998707324	-0.0143943438306451	
514	82.8908517907207	0.26666259765625	51.29999987048	-0.0566109716892242	
515	82.9908517904682	0.26873779296875	51.3999998702275	0.0755830183625221	
516	83.0908517902158	0.2696533203125	51.499999869975	-0.0184125527739525	
517	83.1908517899633	0.27197265625	51.5999998697225	0.0387579165399075	
518	83.2908517897108	0.273162841796875	51.69999986947	-0.0021871265489608	
519	83.3908517894583	0.27294921875	51.7999998692176	-0.0100709544494748	
520	83.4908517892059	0.270263671875	51.8999998689651	-0.0427761264145374	
521	83.5908517889534	0.26953125	51.9999998687126	0.017191831022501	
522	83.6908517887009	0.26983642578125	52.0999998684601	0.00518806744366884	
523	83.7908517884484	0.270965576171875	52.1999998682077	0.014699524268508	
524	83.890851788196	0.27001953125	52.2999998679552	-0.029500775039196	
525	83.9908517879435	0.2696533203125	52.3999998677027	0.00808728206902742	
526	84.090851787691	0.27142333984375	52.4999998674502	0.0335698500275612	
527	84.1908517874385	0.2706298828125	52.5999998671978	-0.0364181995391846	
528	84.2908517871861	0.26947021484375	52.6999998669453	-0.00610360875725746	
529	84.3908517869336	0.26611328125	52.7999998666928	-0.0506599545478821	
530	84.4908517866811	0.2645263671875	52.8999998664403	0.00620533572509885	
531	84.5908517864286	0.2655029296875	52.9999998661879	0.0252282489091158	
532	84.6908517861762	0.269989013671875	53.0999998659354	0.0655629336833954	
533	84.7908517859237	0.270111083984375	53.1999998656829	-0.0468451976776123	
534	84.8908517856712	0.27099609375	53.2999998654304	0.0297550931572914	
535	84.9908517854187	0.270233154296875	53.399999865178	-0.0239058006554842	
536	85.0908517851663	0.2677001953125	53.4999998649255	-0.0345871150493622	
537	85.1908517849138	0.266510009765625	53.599999864673	0.00518806744366884	
538	85.2908517846613	0.26617431640625	53.6999998644205	-0.00071208766894415	
539	85.3908517844088	0.2666015625	53.7999998641681	0.00778210116550326	
540	85.4908517841563	0.27001953125	53.8999998639156	0.056560106575489	
541	85.5908517839039	0.27099609375	53.9999998636631	-0.0205488167703152	
542	85.6908517836514	0.273162841796875	54.0999998634106	0.0397243201732635	
543	85.7908517833989	0.272125244140625	54.1999998631582	-0.0410467684268951	
544	85.8908517831464	0.27239990234375	54.2999998629057	0.0243635717779398	
545	85.990851782894	0.275054931640625	54.3999998626532	0.0420131720602512	
546	86.0908517826415	0.271087646484375	54.4999998624007	-0.102794945240021	
547	86.190851782389	0.274169921875	54.5999998621483	0.111645177006721	
548	86.2908517821365	0.275299072265625	54.6999998618958	-0.0284835081547499	
549	86.3908517818841	0.277130126953125	54.7999998616433	0.0306706335395575	
550	86.4908517816316	0.275726318359375	54.8999998613908	-0.0433356240391731	
551	86.5908517813791	0.27569580078125	54.9999998611383	0.0219221282750368	
552	86.6908517811266	0.276580810546875	55.0999998608859	0.0119020370766521	
553	86.7908517808742	0.277069091796875	55.1999998606334	-0.00147503882180899	
554	86.8908517806217	0.27606201171875	55.2999998603809	-0.021210040897131	
555	86.9908517803692	0.2744140625	55.3999998601284	-0.0168357882648706	
556	87.0908517801167	0.275115966796875	55.499999859876	0.0287378244102001	
557	87.1908517798643	0.274749755859375	55.5999998596235	-0.0203962251543999	
558	87.2908517796118	0.276275634765625	55.699999859371	0.0345871150493622	
559	87.3908517793593	0.27587890625	55.7999998591185	-0.0262963809072971	
560	87.4908517791068	0.27935791015625	55.8999998588661	0.0734976232051849	
561	87.5908517788544	0.279388427734375	55.9999998586136	-0.0413519479334354	
562	87.6908517786019	0.277130126953125	56.0999998583611	-0.0301619991660118	
563	87.7908517783494	0.274932861328125	56.1999998581086	-0.0138348462060094	
564	87.8908517780969	0.27484130859375	56.2999998578562	0.0164288803935051	
565	87.9908517778445	0.278411865234375	56.3999998576037	0.0592050068080425	
566	88.090851777592	0.278717041015625	56.4999998573512	-0.0363673344254494	
567	88.1908517773395	0.280364990234375	56.5999998570987	0.0385544635355473	
568	88.290851777087	0.27984619140625	56.6999998568463	-0.0277205556631088	
569	88.3908517768346	0.278900146484375	56.7999998565938	-0.00579842831939459	
570	88.4908517765821	0.279571533203125	56.8999998563413	0.0216169469058514	
571	88.5908517763296	0.27716064453125	56.9999998560888	-0.0551867969334126	
572	88.6908517760771	0.27984619140625	57.0999998558364	0.0796012282371521	
573	88.7908517758246	0.280181884765625	57.1999998555839	-0.0332138054072857	
574	88.8908517755722	0.2779541015625	57.2999998553314	-0.0358078368008137	
575	88.9908517753197	0.27886962890625	57.3999998550789	0.0438951179385185	
576	89.0908517750672	0.278656005859375	57.4999998548265	-0.0220238547772169	
577	89.1908517748147	0.27655029296875	57.599999854574	-0.0330612137913704	
578	89.2908517745623	0.27886962890625	57.6999998543215	0.0663767457008362	
579	89.3908517743098	0.277679443359375	57.799999854069	-0.0558988824486732	
580	89.4908517740573	0.2757568359375	57.8999998538166	-0.0136313932016492	
581	89.5908517738048	0.2763671875	57.9999998535641	0.0296533666551113	
582	89.6908517735524	0.2777099609375	58.0999998533116	0.0110882222652435	
583	89.7908517732999	0.2784423828125	58.1999998530591	-0.000203453630092554	
584	89.8908517730474	0.28216552734375	58.2999998528066	0.0641896203160286	
585	89.9908517727949	0.28216552734375	58.3999998525542	-0.0409959070384502	
586	90.0908517725425	0.27734375	58.4999998523017	-0.0759899318218231	
587	90.19085177229	0.2779541015625	58.5999998520492	0.0674448758363724	
588	90.2908517720375	0.275054931640625	58.6999998517967	-0.0763459727168083	
589	90.390851771785	0.277801513671875	58.7999998515443	0.0862134769558907	
590	90.4908517715326	0.276611328125	58.8999998512918	-0.0635283961892128	
591	90.5908517712801	0.278839111328125	58.9999998510393	0.063884437084198	
592	90.6908517710276	0.276214599609375	59.0999998507868	-0.0780753269791603	
593	90.7908517707751	0.27679443359375	59.1999998505344	0.0486762784421444	
594	90.8908517705227	0.2755126953125	59.2999998502819	-0.0390122309327126	
595	90.9908517702702	0.27911376953125	59.3999998500294	0.0829073488712311	
596	91.0908517700177	0.275970458984375	59.4999998497769	-0.103913940489292	
597	91.1908517697652	0.280670166015625	59.5999998495245	0.13483889400959	
598	91.2908517695128	0.281463623046875	59.699999849272	-0.0507616810500622	
599	91.3908517692603	0.28143310546875	59.7999998490195	0.00584929157048464	
600	91.4908517690078	0.28411865234375	59.899999848767	0.0522367171943188	
