Index	Potential applied (V)	Time (s)	WE(1).Current (A)	WE(1).Potential (V)
1	0.00244140625	282.397052287016	-0.000232818603515625	0.00260009765624999
2	0.0048828125	282.421452286954	-0.00023114013671875	0.0050506591796875
3	0.00732421875	282.445852286893	-0.000230438232421875	0.0075103759765625
4	0.009765625	282.470252286831	-0.00023297119140625	0.00992431640624999
5	0.01220703125	282.49465228677	-0.00022802734375	0.012371826171875
6	0.0146484375	282.519052286708	-0.00023223876953125	0.0148162841796875
7	0.01708984375	282.543452286646	-0.000226104736328125	0.017266845703125
8	0.01953125	282.567852286585	-0.000230743408203125	0.01966552734375
9	0.02197265625	282.592252286523	-0.000227386474609375	0.0221282958984375
10	0.0244140625	282.616652286462	-0.000227874755859375	0.024566650390625
11	0.02685546875	282.6410522864	-0.000227996826171875	0.0270172119140625
12	0.029296875	282.665452286338	-0.000225341796875	0.0294281005859375
13	0.03173828125	282.689852286277	-0.00022943115234375	0.0319061279296875
14	0.0341796875	282.714252286215	-0.000223419189453125	0.0343292236328125
15	0.03662109375	282.738652286154	-0.00022772216796875	0.0367767333984375
16	0.0390625	282.763052286092	-0.0002225341796875	0.0392303466796875
17	0.04150390625	282.78745228603	-0.000225921630859375	0.0416717529296875
18	0.0439453125	282.811852285969	-0.000224578857421875	0.044085693359375
19	0.04638671875	282.836252285907	-0.000223358154296875	0.04654541015625
20	0.048828125	282.860652285846	-0.000225372314453125	0.0490020751953125
21	0.05126953125	282.885052285784	-0.000221099853515625	0.0513916015625
22	0.0537109375	282.909452285722	-0.0002266845703125	0.053802490234375
23	0.05615234375	282.933852285661	-0.000220489501953125	0.056243896484375
24	0.05859375	282.958252285599	-0.000224212646484375	0.058746337890625
25	0.06103515625	282.982652285537	-0.000220916748046875	0.06109619140625
26	0.0634765625	283.007052285476	-0.000222625732421875	0.0635986328125
27	0.06591796875	283.031452285414	-0.000223419189453125	0.066009521484375
28	0.068359375	283.055852285353	-0.000220428466796875	0.0684814453125
29	0.07080078125	283.080252285291	-0.00022406005859375	0.070892333984375
30	0.0732421875	283.104652285229	-0.00021844482421875	0.0733642578125
31	0.07568359375	283.129052285168	-0.00022393798828125	0.075775146484375
32	0.078125	283.153452285106	-0.0002188720703125	0.078216552734375
33	0.08056640625	283.177852285045	-0.000221343994140625	0.080657958984375
34	0.0830078125	283.202252284983	-0.000219757080078125	0.08306884765625
35	0.08544921875	283.226652284921	-0.0002193603515625	0.0855712890625
36	0.087890625	283.25105228486	-0.000221893310546875	0.0880126953125
37	0.09033203125	283.275452284798	-0.00021710205078125	0.090423583984375
38	0.0927734375	283.299852284737	-0.00022149658203125	0.09283447265625
39	0.09521484375	283.324252284675	-0.000215301513671875	0.095306396484375
40	0.09765625	283.348652284613	-0.000220367431640625	0.097686767578125
41	0.10009765625	283.373052284552	-0.000216796875	0.1002197265625
42	0.1025390625	283.39745228449	-0.000217437744140625	0.10260009765625
43	0.10498046875	283.421852284429	-0.000217498779296875	0.105072021484375
44	0.107421875	283.446252284367	-0.000214996337890625	0.1075439453125
45	0.10986328125	283.470652284305	-0.000219085693359375	0.109954833984375
46	0.1123046875	283.495052284244	-0.000213165283203125	0.112396240234375
47	0.11474609375	283.519452284182	-0.000217681884765625	0.114837646484375
48	0.1171875	283.543852284121	-0.00021221923828125	0.1173095703125
49	0.11962890625	283.568252284059	-0.000215789794921875	0.11968994140625
50	0.1220703125	283.592652283997	-0.000214141845703125	0.122161865234375
51	0.12451171875	283.617052283936	-0.000213165283203125	0.124603271484375
52	0.126953125	283.641452283874	-0.00021484375	0.127044677734375
53	0.12939453125	283.665852283813	-0.000210845947265625	0.12945556640625
54	0.1318359375	283.690252283751	-0.00021588134765625	0.1319580078125
55	0.13427734375	283.714652283689	-0.000209808349609375	0.1343994140625
56	0.13671875	283.739052283628	-0.0002137451171875	0.136810302734375
57	0.13916015625	283.763452283566	-0.000209808349609375	0.139251708984375
58	0.1416015625	283.787852283505	-0.000211761474609375	0.1417236328125
59	0.14404296875	283.812252283443	-0.000212188720703125	0.144134521484375
60	0.146484375	283.836652283381	-0.000209381103515625	0.1466064453125
61	0.14892578125	283.86105228332	-0.000212615966796875	0.149078369140625
62	0.1513671875	283.885452283258	-0.000207122802734375	0.151397705078125
63	0.15380859375	283.909852283197	-0.000212677001953125	0.15386962890625
64	0.15625	283.934252283135	-0.00020697021484375	0.156280517578125
65	0.15869140625	283.958652283073	-0.00020965576171875	0.15875244140625
66	0.1611328125	283.983052283012	-0.00020745849609375	0.161224365234375
67	0.16357421875	284.00745228295	-0.00020745849609375	0.16363525390625
68	0.166015625	284.031852282889	-0.000209747314453125	0.166107177734375
69	0.16845703125	284.056252282827	-0.0002054443359375	0.168548583984375
70	0.1708984375	284.080652282765	-0.00020953369140625	0.1710205078125
71	0.17333984375	284.105052282704	-0.00020367431640625	0.173431396484375
72	0.17578125	284.129452282642	-0.000208770751953125	0.17584228515625
73	0.17822265625	284.15385228258	-0.000204803466796875	0.1783447265625
74	0.1806640625	284.178252282519	-0.0002059326171875	0.180755615234375
75	0.18310546875	284.202652282457	-0.000205718994140625	0.18316650390625
76	0.185546875	284.227052282396	-0.000203521728515625	0.18560791015625
77	0.18798828125	284.251452282334	-0.000207305908203125	0.188140869140625
78	0.1904296875	284.275852282272	-0.0002015380859375	0.1904296875
79	0.19287109375	284.300252282211	-0.0002059326171875	0.19287109375
80	0.1953125	284.324652282149	-0.00020025634765625	0.195404052734375
81	0.19775390625	284.349052282088	-0.0002044677734375	0.1978759765625
82	0.2001953125	284.373452282026	-0.00020269775390625	0.200225830078125
83	0.20263671875	284.397852281964	-0.000201904296875	0.20269775390625
84	0.205078125	284.422252281903	-0.000203369140625	0.20513916015625
85	0.20751953125	284.446652281841	-0.00019964599609375	0.20758056640625
86	0.2099609375	284.47105228178	-0.000204559326171875	0.21002197265625
87	0.21240234375	284.495452281718	-0.000197998046875	0.212554931640625
88	0.21484375	284.519852281656	-0.0002022705078125	0.214874267578125
89	0.21728515625	284.544252281595	-0.000198089599609375	0.217315673828125
90	0.2197265625	284.568652281533	-0.000200531005859375	0.219818115234375
91	0.22216796875	284.593052281472	-0.000200531005859375	0.222259521484375
92	0.224609375	284.61745228141	-0.000198211669921875	0.224639892578125
93	0.22705078125	284.641852281348	-0.00020111083984375	0.22711181640625
94	0.2294921875	284.666252281287	-0.00019647216796875	0.22955322265625
95	0.23193359375	284.690652281225	-0.00020166015625	0.23199462890625
96	0.234375	284.715052281164	-0.000196197509765625	0.234405517578125
97	0.23681640625	284.739452281102	-0.00019921875	0.236907958984375
98	0.2392578125	284.76385228104	-0.000196929931640625	0.239288330078125
99	0.24169921875	284.788252280979	-0.000197479248046875	0.241790771484375
100	0.244140625	284.812652280917	-0.00019976806640625	0.24420166015625
101	0.24658203125	284.837052280856	-0.000195220947265625	0.246612548828125
102	0.2490234375	284.861452280794	-0.00019903564453125	0.2491455078125
103	0.25146484375	284.885852280732	-0.0001932373046875	0.25152587890625
104	0.25390625	284.910252280671	-0.000198211669921875	0.253936767578125
105	0.25634765625	284.934652280609	-0.000193939208984375	0.256378173828125
106	0.2587890625	284.959052280548	-0.0001956787109375	0.258880615234375
107	0.26123046875	284.983452280486	-0.000194976806640625	0.26129150390625
108	0.263671875	285.007852280424	-0.00019317626953125	0.2637939453125
109	0.26611328125	285.032252280363	-0.00019683837890625	0.26611328125
110	0.2685546875	285.056652280301	-0.000191436767578125	0.2685546875
111	0.27099609375	285.08105228024	-0.00019580078125	0.2711181640625
112	0.2734375	285.105452280178	-0.000190277099609375	0.27349853515625
113	0.27587890625	285.129852280116	-0.000194000244140625	0.275909423828125
114	0.2783203125	285.154252280055	-0.00019146728515625	0.27838134765625
115	0.28076171875	285.178652279993	-0.000191558837890625	0.280792236328125
116	0.283203125	285.203052279932	-0.0001922607421875	0.283233642578125
117	0.28564453125	285.22745227987	-0.000188995361328125	0.28564453125
118	0.2880859375	285.251852279808	-0.000193634033203125	0.2882080078125
119	0.29052734375	285.276252279747	-0.000187469482421875	0.290618896484375
120	0.29296875	285.300652279685	-0.000191558837890625	0.2930908203125
121	0.29541015625	285.325052279623	-0.0001868896484375	0.295501708984375
122	0.2978515625	285.349452279562	-0.00018975830078125	0.29791259765625
123	0.30029296875	285.3738522795	-0.000189178466796875	0.300384521484375
124	0.302734375	285.398252279439	-0.00018731689453125	0.302764892578125
125	0.30517578125	285.422652279377	-0.00018963623046875	0.305206298828125
126	0.3076171875	285.447052279315	-0.000184814453125	0.307647705078125
127	0.31005859375	285.471452279254	-0.000190093994140625	0.310150146484375
128	0.3125	285.495852279192	-0.000184173583984375	0.312530517578125
129	0.31494140625	285.520252279131	-0.00018707275390625	0.31500244140625
130	0.3173828125	285.544652279069	-0.00018450927734375	0.317474365234375
131	0.31982421875	285.569052279007	-0.00018499755859375	0.319915771484375
132	0.322265625	285.593452278946	-0.000186004638671875	0.322265625
133	0.32470703125	285.617852278884	-0.00018218994140625	0.324798583984375
134	0.3271484375	285.642252278823	-0.000185791015625	0.32720947265625
135	0.32958984375	285.666652278761	-0.000179840087890625	0.32958984375
136	0.33203125	285.691052278699	-0.0001849365234375	0.33203125
137	0.33447265625	285.715452278638	-0.000180023193359375	0.334503173828125
138	0.3369140625	285.739852278576	-0.000181915283203125	0.336883544921875
139	0.33935546875	285.764252278515	-0.000180816650390625	0.33941650390625
140	0.341796875	285.788652278453	-0.0001793212890625	0.34185791015625
141	0.34423828125	285.813052278391	-0.00018194580078125	0.344268798828125
142	0.3466796875	285.83745227833	-0.000177032470703125	0.3466796875
143	0.34912109375	285.861852278268	-0.000180908203125	0.34918212890625
144	0.3515625	285.886252278207	-0.000175201416015625	0.351593017578125
145	0.35400390625	285.910652278145	-0.0001793212890625	0.354034423828125
146	0.3564453125	285.935052278083	-0.0001766357421875	0.3564453125
147	0.35888671875	285.959452278022	-0.00017633056640625	0.358978271484375
148	0.361328125	285.98385227796	-0.00017718505859375	0.36138916015625
149	0.36376953125	286.008252277899	-0.000174224853515625	0.363800048828125
150	0.3662109375	286.032652277837	-0.00017828369140625	0.366241455078125
151	0.36865234375	286.057052277775	-0.000172515869140625	0.36871337890625
152	0.37109375	286.081452277714	-0.0001763916015625	0.371124267578125
153	0.37353515625	286.105852277652	-0.00017132568359375	0.37359619140625
154	0.3759765625	286.130252277591	-0.000174102783203125	0.376068115234375
155	0.37841796875	286.154652277529	-0.0001732177734375	0.378509521484375
156	0.380859375	286.179052277467	-0.000171661376953125	0.380889892578125
157	0.38330078125	286.203452277406	-0.000173065185546875	0.383331298828125
158	0.3857421875	286.227852277344	-0.000168914794921875	0.3857421875
159	0.38818359375	286.252252277283	-0.00017413330078125	0.38824462890625
160	0.390625	286.276652277221	-0.000167572021484375	0.390655517578125
161	0.39306640625	286.301052277159	-0.000171112060546875	0.393035888671875
162	0.3955078125	286.325452277098	-0.00016802978515625	0.3955078125
163	0.39794921875	286.349852277036	-0.0001697998046875	0.398040771484375
164	0.400390625	286.374252276975	-0.000170440673828125	0.400390625
165	0.40283203125	286.398652276913	-0.000167510986328125	0.40289306640625
166	0.4052734375	286.423052276851	-0.0001705322265625	0.405303955078125
167	0.40771484375	286.44745227679	-0.0001650390625	0.407745361328125
168	0.41015625	286.471852276728	-0.0001702880859375	0.41021728515625
169	0.41259765625	286.496252276666	-0.00016558837890625	0.412689208984375
170	0.4150390625	286.520652276605	-0.0001673583984375	0.4150390625
171	0.41748046875	286.545052276543	-0.000165435791015625	0.41754150390625
172	0.419921875	286.569452276482	-0.000165252685546875	0.41998291015625
173	0.42236328125	286.59385227642	-0.0001676025390625	0.42236328125
174	0.4248046875	286.618252276358	-0.000162017822265625	0.424835205078125
175	0.42724609375	286.642652276297	-0.000166412353515625	0.42724609375
176	0.4296875	286.667052276235	-0.000160614013671875	0.429779052734375
177	0.43212890625	286.691452276174	-0.00016473388671875	0.432159423828125
178	0.4345703125	286.715852276112	-0.00016156005859375	0.434600830078125
179	0.43701171875	286.74025227605	-0.000162078857421875	0.43707275390625
180	0.439453125	286.764652275989	-0.000161834716796875	0.439544677734375
181	0.44189453125	286.789052275927	-0.000158416748046875	0.441925048828125
182	0.4443359375	286.813452275866	-0.000162750244140625	0.4443359375
183	0.44677734375	286.837852275804	-0.000157501220703125	0.44683837890625
184	0.44921875	286.862252275742	-0.000160858154296875	0.449249267578125
185	0.45166015625	286.886652275681	-0.00015478515625	0.45166015625
186	0.4541015625	286.911052275619	-0.00015789794921875	0.4541015625
187	0.45654296875	286.935452275558	-0.000156982421875	0.456512451171875
188	0.458984375	286.959852275496	-0.000155059814453125	0.45892333984375
189	0.46142578125	286.984252275434	-0.000156829833984375	0.461395263671875
190	0.4638671875	287.008652275373	-0.000152313232421875	0.463836669921875
191	0.46630859375	287.033052275311	-0.0001571044921875	0.46630859375
192	0.46875	287.05745227525	-0.000150787353515625	0.46875
193	0.47119140625	287.081852275188	-0.0001544189453125	0.47125244140625
194	0.4736328125	287.106252275126	-0.000149658203125	0.47369384765625
195	0.47607421875	287.130652275065	-0.000151336669921875	0.47607421875
196	0.478515625	287.155052275003	-0.000151123046875	0.47857666015625
197	0.48095703125	287.179452274942	-0.000147369384765625	0.48101806640625
198	0.4833984375	287.20385227488	-0.00015081787109375	0.4833984375
199	0.48583984375	287.228252274818	-0.000143951416015625	0.485809326171875
200	0.48828125	287.252652274757	-0.000149169921875	0.48828125
201	0.49072265625	287.277052274695	-0.000144073486328125	0.490753173828125
202	0.4931640625	287.301452274634	-0.00014605712890625	0.493194580078125
203	0.49560546875	287.325852274572	-0.00014410400390625	0.495635986328125
204	0.498046875	287.35025227451	-0.00014349365234375	0.49810791015625
205	0.50048828125	287.374652274449	-0.0001446533203125	0.50042724609375
206	0.5029296875	287.399052274387	-0.00014013671875	0.502899169921875
207	0.50537109375	287.423452274326	-0.0001431884765625	0.50537109375
208	0.5078125	287.447852274264	-0.000136505126953125	0.5078125
209	0.51025390625	287.472252274202	-0.00014031982421875	0.51019287109375
210	0.5126953125	287.496652274141	-0.000136260986328125	0.5126953125
211	0.51513671875	287.521052274079	-0.00013677978515625	0.51513671875
212	0.517578125	287.545452274018	-0.00013555908203125	0.517547607421875
213	0.52001953125	287.569852273956	-0.000132568359375	0.52001953125
214	0.5224609375	287.594252273894	-0.000136138916015625	0.522430419921875
215	0.52490234375	287.618652273833	-0.00012982177734375	0.52490234375
216	0.52734375	287.643052273771	-0.0001331787109375	0.527374267578125
217	0.52978515625	287.66745227371	-0.00012713623046875	0.52978515625
218	0.5322265625	287.691852273648	-0.000128509521484375	0.532257080078125
219	0.53466796875	287.716252273586	-0.000125335693359375	0.534637451171875
220	0.537109375	287.740652273525	-0.00012347412109375	0.537017822265625
221	0.53955078125	287.765052273463	-0.00012445068359375	0.539520263671875
222	0.5419921875	287.789452273401	-0.00011962890625	0.541961669921875
223	0.54443359375	287.81385227334	-0.000123260498046875	0.544403076171875
224	0.546875	287.838252273278	-0.000115478515625	0.546905517578125
225	0.54931640625	287.862652273217	-0.0001175537109375	0.549285888671875
226	0.5517578125	287.887052273155	-0.000112548828125	0.5517578125
227	0.55419921875	287.911452273093	-0.00011407470703125	0.55419921875
228	0.556640625	287.935852273032	-0.0001134033203125	0.55657958984375
229	0.55908203125	287.96025227297	-0.0001097412109375	0.55908203125
230	0.5615234375	287.984652272909	-0.00011126708984375	0.561492919921875
231	0.56396484375	288.009052272847	-0.0001055908203125	0.56390380859375
232	0.56640625	288.033452272785	-0.00010943603515625	0.56640625
233	0.56884765625	288.057852272724	-0.00010137939453125	0.568817138671875
234	0.5712890625	288.082252272662	-0.0001031494140625	0.57122802734375
235	0.57373046875	288.106652272601	-9.9334716796875E-05	0.57366943359375
236	0.576171875	288.131052272539	-9.8876953125E-05	0.576080322265625
237	0.57861328125	288.155452272477	-9.9609375E-05	0.578582763671875
238	0.5810546875	288.179852272416	-9.332275390625E-05	0.581085205078125
239	0.58349609375	288.204252272354	-9.6038818359375E-05	0.58349609375
240	0.5859375	288.228652272293	-8.8623046875E-05	0.58599853515625
241	0.58837890625	288.253052272231	-9.2987060546875E-05	0.58837890625
242	0.5908203125	288.277452272169	-8.7249755859375E-05	0.5908203125
243	0.59326171875	288.301852272108	-8.740234375E-05	0.59326171875
244	0.595703125	288.326252272046	-8.4930419921875E-05	0.595672607421875
245	0.59814453125	288.350652271985	-8.221435546875E-05	0.59814453125
246	0.6005859375	288.375052271923	-8.392333984375E-05	0.6005859375
247	0.60302734375	288.399452271861	-7.6171875E-05	0.60302734375
248	0.60546875	288.4238522718	-7.94677734375E-05	0.60546875
249	0.60791015625	288.448252271738	-7.1746826171875E-05	0.607940673828125
250	0.6103515625	288.472652271677	-7.36083984375E-05	0.61029052734375
251	0.61279296875	288.497052271615	-6.9244384765625E-05	0.612823486328125
252	0.615234375	288.521452271553	-6.6986083984375E-05	0.615142822265625
253	0.61767578125	288.545852271492	-6.640625E-05	0.617645263671875
254	0.6201171875	288.57025227143	-6.1370849609375E-05	0.620025634765625
255	0.62255859375	288.594652271369	-6.2347412109375E-05	0.62255859375
256	0.625	288.619052271307	-5.40771484375E-05	0.624969482421875
257	0.62744140625	288.643452271245	-5.7525634765625E-05	0.6273193359375
258	0.6298828125	288.667852271184	-5.0140380859375E-05	0.6298828125
259	0.63232421875	288.692252271122	-5.0689697265625E-05	0.632232666015625
260	0.634765625	288.716652271061	-4.7576904296875E-05	0.63470458984375
261	0.63720703125	288.741052270999	-4.24652099609375E-05	0.63720703125
262	0.6396484375	288.765452270937	-4.17144775390625E-05	0.6396484375
263	0.64208984375	288.789852270876	-3.3673095703125E-05	0.642059326171875
264	0.64453125	288.814252270814	-3.494873046875E-05	0.64447021484375
265	0.64697265625	288.838652270753	-2.74261474609375E-05	0.64697265625
266	0.6494140625	288.863052270691	-2.763671875E-05	0.649444580078125
267	0.65185546875	288.887452270629	-2.2894287109375E-05	0.65179443359375
268	0.654296875	288.911852270568	-2.06329345703125E-05	0.654266357421875
269	0.65673828125	288.936252270506	-1.7791748046875E-05	0.65667724609375
270	0.6591796875	288.960652270444	-1.10198974609375E-05	0.659088134765625
271	0.66162109375	288.985052270383	-1.14471435546875E-05	0.66156005859375
272	0.6640625	289.009452270321	-3.533935546875E-06	0.66400146484375
273	0.66650390625	289.03385227026	-4.7698974609375E-06	0.666290283203125
274	0.6689453125	289.058252270198	4.0679931640625E-06	0.66876220703125
275	0.67138671875	289.082652270136	4.69970703125E-06	0.6712646484375
276	0.673828125	289.107052270075	9.649658203125E-06	0.673736572265625
277	0.67626953125	289.131452270013	1.57501220703125E-05	0.675323486328125
278	0.6787109375	289.155852269952	1.65313720703125E-05	0.6783447265625
279	0.68115234375	289.18025226989	2.4560546875E-05	0.680511474609375
280	0.68359375	289.204652269828	2.5140380859375E-05	0.682769775390625
281	0.68603515625	289.229052269767	3.5009765625E-05	0.685211181640625
282	0.6884765625	289.253452269705	3.58062744140625E-05	0.688201904296875
283	0.69091796875	289.277852269644	4.207763671875E-05	0.690704345703125
284	0.693359375	289.302252269582	4.7698974609375E-05	0.693084716796875
285	0.69580078125	289.32665226952	5.2032470703125E-05	0.69561767578125
286	0.6982421875	289.351052269459	5.938720703125E-05	0.698028564453125
287	0.70068359375	289.375452269397	6.0272216796875E-05	0.700408935546875
288	0.703125	289.399852269336	7.0556640625E-05	0.702911376953125
289	0.70556640625	289.424252269274	7.2113037109375E-05	0.705291748046875
290	0.7080078125	289.448652269212	8.3038330078125E-05	0.707763671875
291	0.71044921875	289.473052269151	8.5205078125E-05	0.7100830078125
292	0.712890625	289.497452269089	9.2498779296875E-05	0.712615966796875
293	0.71533203125	289.521852269028	9.967041015625E-05	0.714996337890625
294	0.7177734375	289.546252268966	0.000102447509765625	0.717437744140625
295	0.72021484375	289.570652268904	0.00011328125	0.7198486328125
296	0.72265625	289.595052268843	0.000114654541015625	0.722259521484375
297	0.72509765625	289.619452268781	0.000127044677734375	0.7247314453125
298	0.7275390625	289.64385226872	0.0001297607421875	0.7271728515625
299	0.72998046875	289.668252268658	0.00014007568359375	0.72955322265625
300	0.732421875	289.692652268596	0.0001451416015625	0.731964111328125
301	0.73486328125	289.717052268535	0.000151641845703125	0.734344482421875
302	0.7373046875	289.741452268473	0.00016107177734375	0.73675537109375
303	0.73974609375	289.765852268412	0.000166229248046875	0.739227294921875
304	0.7421875	289.79025226835	0.000178466796875	0.74163818359375
305	0.74462890625	289.814652268288	0.000181793212890625	0.744049072265625
306	0.7470703125	289.839052268227	0.000194671630859375	0.7464599609375
307	0.74951171875	289.863452268165	0.0002003173828125	0.748870849609375
308	0.751953125	289.887852268104	0.00021038818359375	0.75164794921875
309	0.75439453125	289.912252268042	0.0002186279296875	0.75408935546875
310	0.7568359375	289.93665226798	0.000226531982421875	0.7562255859375
311	0.75927734375	289.961052267919	0.0002381591796875	0.7586669921875
312	0.76171875	289.985452267857	0.000244964599609375	0.76141357421875
313	0.76416015625	290.009852267796	0.00025860595703125	0.76324462890625
314	0.7666015625	290.034252267734	0.000264190673828125	0.76568603515625
315	0.76904296875	290.058652267672	0.000277435302734375	0.7684326171875
316	0.771484375	290.083052267611	0.00028594970703125	0.7708740234375
317	0.77392578125	290.107452267549	0.000297607421875	0.7733154296875
318	0.7763671875	290.131852267487	0.000308807373046875	0.77606201171875
319	0.77880859375	290.156252267426	0.00031829833984375	0.7781982421875
320	0.78125	290.180652267364	0.000332305908203125	0.78094482421875
321	0.78369140625	290.205052267303	0.00034259033203125	0.78216552734375
322	0.7861328125	290.229452267241	0.00035821533203125	0.784912109375
323	0.78857421875	290.253852267179	0.00036822509765625	0.78765869140625
324	0.791015625	290.278252267118	0.000382720947265625	0.79071044921875
325	0.79345703125	290.302652267056	0.000395172119140625	0.79254150390625
326	0.7958984375	290.327052266995	0.00040777587890625	0.7952880859375
327	0.79833984375	290.351452266933	0.0004224853515625	0.7977294921875
328	0.80078125	290.375852266871	0.00043414306640625	0.79986572265625
329	0.80322265625	290.40025226681	0.000451385498046875	0.80230712890625
330	0.8056640625	290.424652266748	0.00046392822265625	0.804443359375
331	0.80810546875	290.449052266687	0.00048004150390625	0.8074951171875
332	0.810546875	290.473452266625	0.000493927001953125	0.809326171875
333	0.81298828125	290.497852266563	0.0005096435546875	0.81207275390625
334	0.8154296875	290.522252266502	0.00052642822265625	0.81451416015625
335	0.81787109375	290.54665226644	0.0005413818359375	0.816650390625
336	0.8203125	290.571052266379	0.00055938720703125	0.8197021484375
337	0.82275390625	290.595452266317	0.000572509765625	0.8221435546875
338	0.8251953125	290.619852266255	0.00059234619140625	0.823974609375
339	0.82763671875	290.644252266194	0.0006085205078125	0.82733154296875
340	0.830078125	290.668652266132	0.00062744140625	0.82977294921875
341	0.83251953125	290.693052266071	0.00064422607421875	0.831298828125
342	0.8349609375	290.717452266009	0.0006622314453125	0.83404541015625
343	0.83740234375	290.741852265947	0.00068145751953125	0.836181640625
344	0.83984375	290.766252265886	0.000699462890625	0.8392333984375
345	0.84228515625	290.790652265824	0.00072113037109375	0.84136962890625
346	0.8447265625	290.815052265763	0.00073822021484375	0.8441162109375
347	0.84716796875	290.839452265701	0.00075958251953125	0.8465576171875
348	0.849609375	290.863852265639	0.0007794189453125	0.848388671875
349	0.85205078125	290.888252265578	0.00080108642578125	0.8514404296875
350	0.8544921875	290.912652265516	0.0008221435546875	0.8538818359375
351	0.85693359375	290.937052265455	0.0008441162109375	0.85601806640625
352	0.859375	290.961452265393	0.000865478515625	0.8587646484375
353	0.86181640625	290.985852265331	0.0008880615234375	0.86090087890625
354	0.8642578125	291.01025226527	0.000911865234375	0.863037109375
355	0.86669921875	291.034652265208	0.000933837890625	0.86578369140625
356	0.869140625	291.059052265147	0.00095733642578125	0.86883544921875
357	0.87158203125	291.083452265085	0.00098114013671875	0.87066650390625
358	0.8740234375	291.107852265023	0.001005859375	0.87310791015625
359	0.87646484375	291.132252264962	0.0010296630859375	0.875244140625
360	0.87890625	291.1566522649	0.00105499267578125	0.877685546875
361	0.88134765625	291.181052264839	0.001080322265625	0.88043212890625
362	0.8837890625	291.205452264777	0.0011065673828125	0.8831787109375
363	0.88623046875	291.229852264715	0.00113372802734375	0.88531494140625
364	0.888671875	291.254252264654	0.00115875244140625	0.88836669921875
365	0.89111328125	291.278652264592	0.0011865234375	0.89019775390625
366	0.8935546875	291.30305226453	0.0012139892578125	0.8929443359375
367	0.89599609375	291.327452264469	0.00124298095703125	0.894775390625
368	0.8984375	291.351852264407	0.0012701416015625	0.89691162109375
369	0.90087890625	291.376252264346	0.001300048828125	0.9002685546875
370	0.9033203125	291.400652264284	0.0013287353515625	0.90240478515625
371	0.90576171875	291.425052264222	0.0013580322265625	0.9051513671875
372	0.908203125	291.449452264161	0.00138824462890625	0.9075927734375
373	0.91064453125	291.473852264099	0.00141754150390625	0.9100341796875
374	0.9130859375	291.498252264038	0.00144927978515625	0.91278076171875
375	0.91552734375	291.522652263976	0.0014794921875	0.91522216796875
376	0.91796875	291.547052263914	0.00151214599609375	0.91766357421875
377	0.92041015625	291.571452263853	0.0015435791015625	0.91949462890625
378	0.9228515625	291.595852263791	0.00157684326171875	0.9222412109375
379	0.92529296875	291.62025226373	0.0016094970703125	0.92437744140625
380	0.927734375	291.644652263668	0.00164154052734375	0.92681884765625
381	0.93017578125	291.669052263606	0.00167633056640625	0.9295654296875
382	0.9326171875	291.693452263545	0.00170989990234375	0.931396484375
383	0.93505859375	291.717852263483	0.00174468994140625	0.93414306640625
384	0.9375	291.742252263422	0.00177825927734375	0.9368896484375
385	0.93994140625	291.76665226336	0.001815185546875	0.93902587890625
386	0.9423828125	291.791052263298	0.00184967041015625	0.941162109375
387	0.94482421875	291.815452263237	0.00188751220703125	0.94390869140625
388	0.947265625	291.839852263175	0.001922607421875	0.9466552734375
389	0.94970703125	291.864252263114	0.00195953369140625	0.94818115234375
390	0.9521484375	291.888652263052	0.00199676513671875	0.95123291015625
391	0.95458984375	291.91305226299	0.00203338623046875	0.95367431640625
392	0.95703125	291.937452262929	0.002073974609375	0.9564208984375
393	0.95947265625	291.961852262867	0.002110595703125	0.958251953125
394	0.9619140625	291.986252262806	0.00215118408203125	0.96099853515625
395	0.96435546875	292.010652262744	0.00218902587890625	0.96343994140625
396	0.966796875	292.035052262682	0.0022296142578125	0.965576171875
397	0.96923828125	292.059452262621	0.0022698974609375	0.9686279296875
398	0.9716796875	292.083852262559	0.00230987548828125	0.97137451171875
399	0.97412109375	292.108252262498	0.0023516845703125	0.972900390625
400	0.9765625	292.132652262436	0.0023931884765625	0.9759521484375
401	0.97900390625	292.157052262374	0.00243743896484375	0.977783203125
402	0.9814453125	292.181452262313	0.00247650146484375	0.9808349609375
403	0.98388671875	292.205852262251	0.00252166748046875	0.98297119140625
404	0.986328125	292.23025226219	0.0025634765625	0.98541259765625
405	0.98876953125	292.254652262128	0.0026080322265625	0.9881591796875
406	0.9912109375	292.279052262066	0.00265228271484375	0.9906005859375
407	0.99365234375	292.303452262005	0.0026953125	0.9930419921875
408	0.99609375	292.327852261943	0.0027423095703125	0.99517822265625
409	0.99853515625	292.352252261882	0.0027850341796875	0.99700927734375
410	1.0009765625	292.37665226182	0.0028338623046875	1.00067138671875
411	1.00341796875	292.401052261758	0.00287689208984375	1.002197265625
412	1.005859375	292.425452261697	0.00292449951171875	1.0052490234375
413	1.00830078125	292.449852261635	0.00297027587890625	1.00738525390625
414	1.0107421875	292.474252261573	0.003017578125	1.00982666015625
415	1.01318359375	292.498652261512	0.00306610107421875	1.01226806640625
416	1.015625	292.52305226145	0.00311187744140625	1.014404296875
417	1.01806640625	292.547452261389	0.00316192626953125	1.01715087890625
418	1.0205078125	292.571852261327	0.0032080078125	1.01959228515625
419	1.02294921875	292.596252261265	0.00325897216796875	1.02203369140625
420	1.025390625	292.620652261204	0.00330596923828125	1.0247802734375
421	1.02783203125	292.645052261142	0.00335601806640625	1.02630615234375
422	1.0302734375	292.669452261081	0.00340576171875	1.0296630859375
423	1.03271484375	292.693852261019	0.00345458984375	1.0321044921875
424	1.03515625	292.718252260957	0.003505859375	1.033935546875
425	1.03759765625	292.742652260896	0.0035528564453125	1.03668212890625
426	1.0400390625	292.767052260834	0.0036053466796875	1.038818359375
427	1.04248046875	292.791452260773	0.0036529541015625	1.041259765625
428	1.044921875	292.815852260711	0.0037054443359375	1.043701171875
429	1.04736328125	292.840252260649	0.003753662109375	1.0467529296875
430	1.0498046875	292.864652260588	0.0038037109375	1.04888916015625
431	1.05224609375	292.889052260526	0.003853759765625	1.05133056640625
432	1.0546875	292.913452260465	0.0039019775390625	1.05377197265625
433	1.05712890625	292.937852260403	0.0039520263671875	1.055908203125
434	1.0595703125	292.962252260341	0.0039971923828125	1.0589599609375
435	1.06201171875	292.98665226028	0.004046630859375	1.0614013671875
436	1.064453125	293.011052260218	0.00409088134765625	1.06353759765625
437	1.06689453125	293.035452260157	0.00413787841796875	1.06536865234375
438	1.0693359375	293.059852260095	0.00418182373046875	1.06842041015625
439	1.07177734375	293.084252260033	0.0042236328125	1.070556640625
440	1.07421875	293.108652259972	0.00426727294921875	1.0736083984375
441	1.07666015625	293.13305225991	0.00430694580078125	1.075439453125
442	1.0791015625	293.157452259849	0.00434844970703125	1.077880859375
443	1.08154296875	293.181852259787	0.00438446044921875	1.08062744140625
444	1.083984375	293.206252259725	0.0044232177734375	1.08306884765625
445	1.08642578125	293.230652259664	0.0044586181640625	1.08551025390625
446	1.0888671875	293.255052259602	0.00449371337890625	1.087646484375
447	1.09130859375	293.279452259541	0.00452789306640625	1.09039306640625
448	1.09375	293.303852259479	0.004559326171875	1.092529296875
449	1.09619140625	293.328252259417	0.00459197998046875	1.094970703125
450	1.0986328125	293.352652259356	0.00462158203125	1.097412109375
451	1.10107421875	293.377052259294	0.0046527099609375	1.10015869140625
452	1.103515625	293.401452259233	0.00467987060546875	1.10260009765625
453	1.10595703125	293.425852259171	0.00470855712890625	1.10504150390625
454	1.1083984375	293.450252259109	0.00473541259765625	1.107177734375
455	1.11083984375	293.474652259048	0.00476165771484375	1.1102294921875
456	1.11328125	293.499052258986	0.00478759765625	1.112060546875
457	1.11572265625	293.523452258925	0.0048114013671875	1.11419677734375
458	1.1181640625	293.547852258863	0.00483642578125	1.116943359375
459	1.12060546875	293.572252258801	0.0048590087890625	1.119384765625
460	1.123046875	293.59665225874	0.0048828125	1.12152099609375
461	1.12548828125	293.621052258678	0.00490447998046875	1.12396240234375
462	1.1279296875	293.645452258617	0.00492645263671875	1.12701416015625
463	1.13037109375	293.669852258555	0.00494781494140625	1.12945556640625
464	1.1328125	293.694252258493	0.00496826171875	1.1322021484375
465	1.13525390625	293.718652258432	0.004989013671875	1.13433837890625
466	1.1376953125	293.74305225837	0.0050079345703125	1.136474609375
467	1.14013671875	293.767452258308	0.005028076171875	1.138916015625
468	1.142578125	293.791852258247	0.00504638671875	1.141357421875
469	1.14501953125	293.816252258185	0.00506561279296875	1.1444091796875
470	1.1474609375	293.840652258124	0.00508331298828125	1.14654541015625
471	1.14990234375	293.865052258062	0.005101318359375	1.14898681640625
472	1.15234375	293.889452258	0.0051190185546875	1.1517333984375
473	1.15478515625	293.913852257939	0.00513580322265625	1.15386962890625
474	1.1572265625	293.938252257877	0.0051531982421875	1.15631103515625
475	1.15966796875	293.962652257816	0.00516876220703125	1.158447265625
476	1.162109375	293.987052257754	0.005185546875	1.1614990234375
477	1.16455078125	294.011452257692	0.00520111083984375	1.16363525390625
478	1.1669921875	294.035852257631	0.00521697998046875	1.1663818359375
479	1.16943359375	294.060252257569	0.00523223876953125	1.1676025390625
480	1.171875	294.084652257508	0.0052471923828125	1.170654296875
481	1.17431640625	294.109052257446	0.005262451171875	1.17279052734375
482	1.1767578125	294.133452257384	0.00527679443359375	1.17584228515625
483	1.17919921875	294.157852257323	0.00529144287109375	1.177978515625
484	1.181640625	294.182252257261	0.00530517578125	1.1810302734375
485	1.18408203125	294.2066522572	0.00531951904296875	1.18316650390625
486	1.1865234375	294.231052257138	0.005333251953125	1.18560791015625
487	1.18896484375	294.255452257076	0.0053466796875	1.187744140625
488	1.19140625	294.279852257015	0.005360107421875	1.19049072265625
489	1.19384765625	294.304252256953	0.00537322998046875	1.19293212890625
490	1.1962890625	294.328652256892	0.0053863525390625	1.1956787109375
491	1.19873046875	294.35305225683	0.00539886474609375	1.197509765625
492	1.201171875	294.377452256768	0.0054119873046875	1.20025634765625
493	1.19873046875	294.401852256707	0.00539459228515625	1.19781494140625
494	1.1962890625	294.426252256645	0.0053778076171875	1.19537353515625
495	1.19384765625	294.450652256584	0.00536041259765625	1.192626953125
496	1.19140625	294.475052256522	0.0053424072265625	1.190185546875
497	1.18896484375	294.49945225646	0.00532470703125	1.18804931640625
498	1.1865234375	294.523852256399	0.0053057861328125	1.18560791015625
499	1.18408203125	294.548252256337	0.0052874755859375	1.1834716796875
500	1.181640625	294.572652256276	0.0052679443359375	1.180419921875
501	1.17919921875	294.597052256214	0.0052490234375	1.1785888671875
502	1.1767578125	294.621452256152	0.0052288818359375	1.17584228515625
503	1.17431640625	294.645852256091	0.00520843505859375	1.17279052734375
504	1.171875	294.670252256029	0.00518798828125	1.170654296875
505	1.16943359375	294.694652255968	0.0051666259765625	1.168212890625
506	1.1669921875	294.719052255906	0.005145263671875	1.16607666015625
507	1.16455078125	294.743452255844	0.0051226806640625	1.163330078125
508	1.162109375	294.767852255783	0.00510009765625	1.160888671875
509	1.15966796875	294.792252255721	0.00507659912109375	1.15875244140625
510	1.1572265625	294.81665225566	0.00505279541015625	1.15631103515625
511	1.15478515625	294.841052255598	0.00502777099609375	1.153564453125
512	1.15234375	294.865452255536	0.00500244140625	1.15142822265625
513	1.14990234375	294.889852255475	0.004976806640625	1.148681640625
514	1.1474609375	294.914252255413	0.0049493408203125	1.146240234375
515	1.14501953125	294.938652255351	0.00492218017578125	1.143798828125
516	1.142578125	294.96305225529	0.00489288330078125	1.141357421875
517	1.14013671875	294.987452255228	0.0048638916015625	1.13922119140625
518	1.1376953125	295.011852255167	0.00483306884765625	1.13677978515625
519	1.13525390625	295.036252255105	0.00480133056640625	1.1346435546875
520	1.1328125	295.060652255043	0.00476837158203125	1.13189697265625
521	1.13037109375	295.085052254982	0.00473388671875	1.129150390625
522	1.1279296875	295.10945225492	0.00469879150390625	1.1273193359375
523	1.12548828125	295.133852254859	0.0046612548828125	1.12457275390625
524	1.123046875	295.158252254797	0.00462371826171875	1.121826171875
525	1.12060546875	295.182652254735	0.00458282470703125	1.1199951171875
526	1.1181640625	295.207052254674	0.00454132080078125	1.116943359375
527	1.11572265625	295.231452254612	0.0044976806640625	1.11480712890625
528	1.11328125	295.255852254551	0.00445220947265625	1.112060546875
529	1.11083984375	295.280252254489	0.00440460205078125	1.109619140625
530	1.1083984375	295.304652254427	0.00435455322265625	1.10748291015625
531	1.10595703125	295.329052254366	0.00430389404296875	1.1053466796875
532	1.103515625	295.353452254304	0.0042498779296875	1.102294921875
533	1.10107421875	295.377852254243	0.0041961669921875	1.10015869140625
534	1.0986328125	295.402252254181	0.00413787841796875	1.09771728515625
535	1.09619140625	295.426652254119	0.00407928466796875	1.094970703125
536	1.09375	295.451052254058	0.00401947021484375	1.09283447265625
537	1.09130859375	295.475452253996	0.00395782470703125	1.09039306640625
538	1.0888671875	295.499852253935	0.00389617919921875	1.08795166015625
539	1.08642578125	295.524252253873	0.0038311767578125	1.0858154296875
540	1.083984375	295.548652253811	0.0037689208984375	1.08306884765625
541	1.08154296875	295.57305225375	0.00370452880859375	1.08062744140625
542	1.0791015625	295.597452253688	0.0036407470703125	1.077880859375
543	1.07666015625	295.621852253627	0.00357574462890625	1.07574462890625
544	1.07421875	295.646252253565	0.0035107421875	1.07330322265625
545	1.07177734375	295.670652253503	0.00344757080078125	1.07086181640625
546	1.0693359375	295.695052253442	0.0033831787109375	1.06842041015625
547	1.06689453125	295.71945225338	0.00332183837890625	1.065673828125
548	1.064453125	295.743852253319	0.00325836181640625	1.06292724609375
549	1.06201171875	295.768252253257	0.0031976318359375	1.060791015625
550	1.0595703125	295.792652253195	0.00313568115234375	1.058349609375
551	1.05712890625	295.817052253134	0.00307464599609375	1.05621337890625
552	1.0546875	295.841452253072	0.00301483154296875	1.05377197265625
553	1.05224609375	295.865852253011	0.002955322265625	1.051025390625
554	1.0498046875	295.890252252949	0.00289794921875	1.04888916015625
555	1.04736328125	295.914652252887	0.00283966064453125	1.04644775390625
556	1.044921875	295.939052252826	0.002783203125	1.04339599609375
557	1.04248046875	295.963452252764	0.00272613525390625	1.041259765625
558	1.0400390625	295.987852252703	0.0026715087890625	1.03912353515625
559	1.03759765625	296.012252252641	0.00261749267578125	1.036376953125
560	1.03515625	296.036652252579	0.00256256103515625	1.03424072265625
561	1.03271484375	296.061052252518	0.00250946044921875	1.0321044921875
562	1.0302734375	296.085452252456	0.0024566650390625	1.02935791015625
563	1.02783203125	296.109852252394	0.0024053955078125	1.02691650390625
564	1.025390625	296.134252252333	0.00235443115234375	1.02508544921875
565	1.02294921875	296.158652252271	0.0023052978515625	1.021728515625
566	1.0205078125	296.18305225221	0.0022564697265625	1.01959228515625
567	1.01806640625	296.207452252148	0.00220855712890625	1.0174560546875
568	1.015625	296.231852252086	0.0021624755859375	1.01470947265625
569	1.01318359375	296.256252252025	0.00211456298828125	1.0125732421875
570	1.0107421875	296.280652251963	0.002069091796875	1.00982666015625
571	1.00830078125	296.305052251902	0.00202392578125	1.007080078125
572	1.005859375	296.32945225184	0.00198028564453125	1.005859375
573	1.00341796875	296.353852251778	0.0019378662109375	1.00311279296875
574	1.0009765625	296.378252251717	0.00189544677734375	0.999755859375
575	0.99853515625	296.402652251655	0.00185516357421875	0.9979248046875
576	0.99609375	296.427052251594	0.00181396484375	0.99517822265625
577	0.99365234375	296.451452251532	0.0017755126953125	0.99273681640625
578	0.9912109375	296.47585225147	0.00173431396484375	0.99090576171875
579	0.98876953125	296.500252251409	0.00169647216796875	0.9881591796875
580	0.986328125	296.524652251347	0.00165924072265625	0.98541259765625
581	0.98388671875	296.549052251286	0.00162139892578125	0.98297119140625
582	0.9814453125	296.573452251224	0.00158660888671875	0.98052978515625
583	0.97900390625	296.597852251162	0.00155029296875	0.9783935546875
584	0.9765625	296.622252251101	0.0015167236328125	0.975341796875
585	0.97412109375	296.646652251039	0.00148223876953125	0.9735107421875
586	0.9716796875	296.671052250978	0.00144866943359375	0.97137451171875
587	0.96923828125	296.695452250916	0.0014166259765625	0.96832275390625
588	0.966796875	296.719852250854	0.00138214111328125	0.965576171875
589	0.96435546875	296.744252250793	0.0013531494140625	0.9637451171875
590	0.9619140625	296.768652250731	0.00132080078125	0.9613037109375
591	0.95947265625	296.79305225067	0.0012933349609375	0.9588623046875
592	0.95703125	296.817452250608	0.001263427734375	0.955810546875
593	0.95458984375	296.841852250546	0.00123565673828125	0.9539794921875
594	0.9521484375	296.866252250485	0.001207275390625	0.95123291015625
595	0.94970703125	296.890652250423	0.00118011474609375	0.94879150390625
596	0.947265625	296.915052250362	0.0011541748046875	0.94635009765625
597	0.94482421875	296.9394522503	0.00112640380859375	0.9442138671875
598	0.9423828125	296.963852250238	0.00110321044921875	0.94146728515625
599	0.93994140625	296.988252250177	0.0010772705078125	0.9393310546875
600	0.9375	297.012652250115	0.00105438232421875	0.93658447265625
601	0.93505859375	297.037052250054	0.001029052734375	0.933837890625
602	0.9326171875	297.061452249992	0.00100616455078125	0.93170166015625
603	0.93017578125	297.08585224993	0.0009844970703125	0.928955078125
604	0.927734375	297.110252249869	0.0009600830078125	0.926513671875
605	0.92529296875	297.134652249807	0.00094207763671875	0.924072265625
606	0.9228515625	297.159052249746	0.00091644287109375	0.9222412109375
607	0.92041015625	297.183452249684	0.0008984375	0.91949462890625
608	0.91796875	297.207852249622	0.00087677001953125	0.91705322265625
609	0.91552734375	297.232252249561	0.00085784912109375	0.91461181640625
610	0.9130859375	297.256652249499	0.00083892822265625	0.91217041015625
611	0.91064453125	297.281052249437	0.00081878662109375	0.90972900390625
612	0.908203125	297.305452249376	0.000802001953125	0.90728759765625
613	0.90576171875	297.329852249314	0.00078155517578125	0.9051513671875
614	0.9033203125	297.354252249253	0.0007672119140625	0.9027099609375
615	0.90087890625	297.378652249191	0.0007464599609375	0.9002685546875
616	0.8984375	297.403052249129	0.00073333740234375	0.89752197265625
617	0.89599609375	297.427452249068	0.00071502685546875	0.89447021484375
618	0.8935546875	297.451852249006	0.000699462890625	0.89263916015625
619	0.89111328125	297.476252248945	0.00068359375	0.8905029296875
620	0.888671875	297.500652248883	0.00066680908203125	0.88775634765625
621	0.88623046875	297.525052248821	0.00065338134765625	0.88531494140625
622	0.8837890625	297.54945224876	0.000635986328125	0.88348388671875
623	0.88134765625	297.573852248698	0.00062530517578125	0.88043212890625
624	0.87890625	297.598252248637	0.0006085205078125	0.87799072265625
625	0.87646484375	297.622652248575	0.00059600830078125	0.8758544921875
626	0.8740234375	297.647052248513	0.0005810546875	0.87310791015625
627	0.87158203125	297.671452248452	0.00056915283203125	0.87066650390625
628	0.869140625	297.69585224839	0.0005572509765625	0.867919921875
629	0.86669921875	297.720252248329	0.0005401611328125	0.86578369140625
630	0.8642578125	297.744652248267	0.00053131103515625	0.8636474609375
631	0.86181640625	297.769052248205	0.0005157470703125	0.860595703125
632	0.859375	297.793452248144	0.0005072021484375	0.8587646484375
633	0.85693359375	297.817852248082	0.000491729736328125	0.85601806640625
634	0.8544921875	297.842252248021	0.00048101806640625	0.853271484375
635	0.85205078125	297.866652247959	0.00046990966796875	0.85113525390625
636	0.849609375	297.891052247897	0.0004578857421875	0.84869384765625
637	0.84716796875	297.915452247836	0.000449432373046875	0.845947265625
638	0.8447265625	297.939852247774	0.00043408203125	0.843505859375
639	0.84228515625	297.964252247713	0.000427947998046875	0.84136962890625
640	0.83984375	297.988652247651	0.00041461181640625	0.83892822265625
641	0.83740234375	298.013052247589	0.000406707763671875	0.836181640625
642	0.8349609375	298.037452247528	0.000395782470703125	0.8343505859375
643	0.83251953125	298.061852247466	0.000384796142578125	0.83160400390625
644	0.830078125	298.086252247405	0.0003775634765625	0.828857421875
645	0.82763671875	298.110652247343	0.000365142822265625	0.826416015625
646	0.8251953125	298.135052247281	0.000359283447265625	0.823974609375
647	0.82275390625	298.15945224722	0.0003458251953125	0.82183837890625
648	0.8203125	298.183852247158	0.000341766357421875	0.81939697265625
649	0.81787109375	298.208252247097	0.0003297119140625	0.81695556640625
650	0.8154296875	298.232652247035	0.0003226318359375	0.81451416015625
651	0.81298828125	298.257052246973	0.00031341552734375	0.81207275390625
652	0.810546875	298.281452246912	0.000303802490234375	0.8099365234375
653	0.80810546875	298.30585224685	0.00029736328125	0.8074951171875
654	0.8056640625	298.330252246789	0.00028643798828125	0.8050537109375
655	0.80322265625	298.354652246727	0.000282012939453125	0.8026123046875
656	0.80078125	298.379052246665	0.00027008056640625	0.8001708984375
657	0.79833984375	298.403452246604	0.000266326904296875	0.7977294921875
658	0.7958984375	298.427852246542	0.000257110595703125	0.794677734375
659	0.79345703125	298.45225224648	0.00025	0.79254150390625
660	0.791015625	298.476652246419	0.00024176025390625	0.789794921875
661	0.78857421875	298.501052246357	0.0002320556640625	0.78765869140625
662	0.7861328125	298.525452246296	0.00022900390625	0.7855224609375
663	0.78369140625	298.549852246234	0.00021746826171875	0.78277587890625
664	0.78125	298.574252246172	0.000214324951171875	0.78033447265625
665	0.77880859375	298.598652246111	0.000203460693359375	0.7781982421875
666	0.7763671875	298.623052246049	0.00019854736328125	0.77545166015625
667	0.77392578125	298.647452245988	0.000191375732421875	0.77362060546875
668	0.771484375	298.671852245926	0.000184356689453125	0.770263671875
669	0.76904296875	298.696252245864	0.00017962646484375	0.7684326171875
670	0.7666015625	298.720652245803	0.00016949462890625	0.76629638671875
671	0.76416015625	298.745052245741	0.000167633056640625	0.76385498046875
672	0.76171875	298.76945224568	0.00015740966796875	0.7611083984375
673	0.75927734375	298.793852245618	0.000154754638671875	0.75836181640625
674	0.7568359375	298.818252245556	0.0001453857421875	0.75592041015625
675	0.75439453125	298.842652245495	0.000140106201171875	0.75347900390625
676	0.751953125	298.867052245433	0.000135772705078125	0.750732421875
677	0.74951171875	298.891452245372	0.000127960205078125	0.749298095703125
678	0.7470703125	298.91585224531	0.00012652587890625	0.746856689453125
679	0.74462890625	298.940252245248	0.000115478515625	0.744354248046875
680	0.7421875	298.964652245187	0.0001153564453125	0.741973876953125
681	0.73974609375	298.989052245125	0.00010772705078125	0.73956298828125
682	0.7373046875	299.013452245064	0.000102874755859375	0.737091064453125
683	0.73486328125	299.037852245002	9.6893310546875E-05	0.73468017578125
684	0.732421875	299.06225224494	9.1033935546875E-05	0.732269287109375
685	0.72998046875	299.086652244879	8.868408203125E-05	0.729766845703125
686	0.7275390625	299.111052244817	8.0352783203125E-05	0.72735595703125
687	0.72509765625	299.135452244756	8.1024169921875E-05	0.724945068359375
688	0.72265625	299.159852244694	7.0343017578125E-05	0.72222900390625
689	0.72021484375	299.184252244632	6.94580078125E-05	0.719970703125
690	0.7177734375	299.208652244571	6.28662109375E-05	0.717498779296875
691	0.71533203125	299.233052244509	5.8990478515625E-05	0.715057373046875
692	0.712890625	299.257452244448	5.5267333984375E-05	0.712677001953125
693	0.71044921875	299.281852244386	4.8370361328125E-05	0.710205078125
694	0.7080078125	299.306252244324	4.7515869140625E-05	0.707763671875
695	0.70556640625	299.330652244263	3.86322021484375E-05	0.705352783203125
696	0.703125	299.355052244201	3.91387939453125E-05	0.70294189453125
697	0.70068359375	299.37945224414	3.06671142578125E-05	0.70050048828125
698	0.6982421875	299.403852244078	2.80517578125E-05	0.69805908203125
699	0.69580078125	299.428252244016	2.30377197265625E-05	0.695648193359375
700	0.693359375	299.452652243955	1.88720703125E-05	0.69317626953125
701	0.69091796875	299.477052243893	1.65130615234375E-05	0.6907958984375
702	0.6884765625	299.501452243832	7.6446533203125E-06	0.6883544921875
703	0.68603515625	299.52585224377	8.3404541015625E-06	0.68585205078125
704	0.68359375	299.550252243708	1.2176513671875E-06	0.683502197265625
705	0.68115234375	299.574652243647	1.3153076171875E-06	0.6810302734375
706	0.6787109375	299.599052243585	-5.133056640625E-06	0.678619384765625
707	0.67626953125	299.623452243524	-7.6751708984375E-06	0.676300048828125
708	0.673828125	299.647852243462	-1.0595703125E-05	0.673797607421875
709	0.67138671875	299.6722522434	-1.61895751953125E-05	0.671539306640625
710	0.6689453125	299.696652243339	-1.62445068359375E-05	0.669036865234375
711	0.66650390625	299.721052243277	-2.557373046875E-05	0.66668701171875
712	0.6640625	299.745452243215	-2.20794677734375E-05	0.664306640625
713	0.66162109375	299.769852243154	-2.93731689453125E-05	0.661834716796875
714	0.6591796875	299.794252243092	-2.79541015625E-05	0.659576416015625
715	0.65673828125	299.818652243031	-3.328857421875E-05	0.657012939453125
716	0.654296875	299.843052242969	-3.7030029296875E-05	0.654205322265625
717	0.65185546875	299.867452242907	-3.77777099609375E-05	0.65179443359375
718	0.6494140625	299.891852242846	-4.39971923828125E-05	0.649444580078125
719	0.64697265625	299.916252242784	-4.14520263671875E-05	0.64691162109375
720	0.64453125	299.940652242723	-4.913330078125E-05	0.644561767578125
721	0.64208984375	299.965052242661	-4.69970703125E-05	0.641937255859375
722	0.6396484375	299.989452242599	-5.3863525390625E-05	0.6396484375
723	0.63720703125	300.013852242538	-5.4534912109375E-05	0.63720703125
724	0.634765625	300.038252242476	-5.77392578125E-05	0.63470458984375
725	0.63232421875	300.062652242415	-6.18896484375E-05	0.63232421875
726	0.6298828125	300.087052242353	-6.11572265625E-05	0.6298828125
727	0.62744140625	300.111452242291	-6.695556640625E-05	0.62744140625
728	0.625	300.13585224223	-6.4849853515625E-05	0.62493896484375
729	0.62255859375	300.160252242168	-7.275390625E-05	0.62249755859375
730	0.6201171875	300.184652242107	-7.0892333984375E-05	0.6201171875
731	0.61767578125	300.209052242045	-7.5531005859375E-05	0.617645263671875
732	0.615234375	300.233452241983	-7.7178955078125E-05	0.615234375
733	0.61279296875	300.257852241922	-7.867431640625E-05	0.61279296875
734	0.6103515625	300.28225224186	-8.5174560546875E-05	0.61041259765625
735	0.60791015625	300.306652241799	-8.282470703125E-05	0.60797119140625
736	0.60546875	300.331052241737	-8.966064453125E-05	0.605499267578125
737	0.60302734375	300.355452241675	-8.5662841796875E-05	0.60308837890625
738	0.6005859375	300.379852241614	-9.2742919921875E-05	0.600677490234375
739	0.59814453125	300.404252241552	-9.2437744140625E-05	0.598114013671875
740	0.595703125	300.428652241491	-9.48486328125E-05	0.595733642578125
741	0.59326171875	300.453052241429	-9.7808837890625E-05	0.593353271484375
742	0.5908203125	300.477452241367	-9.7686767578125E-05	0.590850830078125
743	0.58837890625	300.501852241306	-0.000103759765625	0.588409423828125
744	0.5859375	300.526252241244	-9.9822998046875E-05	0.58599853515625
745	0.58349609375	300.550652241183	-0.000107025146484375	0.58349609375
746	0.5810546875	300.575052241121	-0.00010430908203125	0.58111572265625
747	0.57861328125	300.599452241059	-0.000109466552734375	0.57867431640625
748	0.576171875	300.623852240998	-0.000110443115234375	0.576263427734375
749	0.57373046875	300.648252240936	-0.0001112060546875	0.5738525390625
750	0.5712890625	300.672652240875	-0.000114837646484375	0.571380615234375
751	0.56884765625	300.697052240813	-0.0001126708984375	0.5689697265625
752	0.56640625	300.721452240751	-0.00011944580078125	0.566497802734375
753	0.56396484375	300.74585224069	-0.00011541748046875	0.564056396484375
754	0.5615234375	300.770252240628	-0.00012103271484375	0.5616455078125
755	0.55908203125	300.794652240567	-0.000119415283203125	0.5592041015625
756	0.556640625	300.819052240505	-0.000121856689453125	0.556793212890625
757	0.55419921875	300.843452240443	-0.0001243896484375	0.5543212890625
758	0.5517578125	300.867852240382	-0.00012274169921875	0.551849365234375
759	0.54931640625	300.89225224032	-0.000128326416015625	0.5494384765625
760	0.546875	300.916652240258	-0.000124359130859375	0.547027587890625
761	0.54443359375	300.941052240197	-0.000131988525390625	0.5445556640625
762	0.5419921875	300.965452240135	-0.000128448486328125	0.542144775390625
763	0.53955078125	300.989852240074	-0.0001319580078125	0.539703369140625
764	0.537109375	301.014252240012	-0.00013299560546875	0.5372314453125
765	0.53466796875	301.03865223995	-0.00013360595703125	0.5347900390625
766	0.5322265625	301.063052239889	-0.000137664794921875	0.5323486328125
767	0.52978515625	301.087452239827	-0.0001341552734375	0.52996826171875
768	0.52734375	301.111852239766	-0.000140380859375	0.527496337890625
769	0.52490234375	301.136252239704	-0.0001363525390625	0.525054931640625
770	0.5224609375	301.160652239642	-0.000142913818359375	0.52264404296875
771	0.52001953125	301.185052239581	-0.000141143798828125	0.52020263671875
772	0.517578125	301.209452239519	-0.000143707275390625	0.5177001953125
773	0.51513671875	301.233852239458	-0.000144561767578125	0.51531982421875
774	0.5126953125	301.258252239396	-0.00014306640625	0.51287841796875
775	0.51025390625	301.282652239334	-0.000148040771484375	0.5103759765625
776	0.5078125	301.307052239273	-0.000144256591796875	0.507965087890625
777	0.50537109375	301.331452239211	-0.000150146484375	0.505523681640625
778	0.5029296875	301.35585223915	-0.00014593505859375	0.503143310546875
779	0.50048828125	301.380252239088	-0.000150390625	0.50067138671875
780	0.498046875	301.404652239026	-0.000150299072265625	0.49822998046875
781	0.49560546875	301.429052238965	-0.000150604248046875	0.495758056640625
782	0.4931640625	301.453452238903	-0.00015350341796875	0.49334716796875
783	0.49072265625	301.477852238842	-0.00014971923828125	0.490875244140625
784	0.48828125	301.50225223878	-0.000155548095703125	0.4884033203125
785	0.48583984375	301.526652238718	-0.00015155029296875	0.4859619140625
786	0.4833984375	301.551052238657	-0.00015679931640625	0.483551025390625
787	0.48095703125	301.575452238595	-0.000154022216796875	0.4810791015625
788	0.478515625	301.599852238534	-0.000156494140625	0.478729248046875
789	0.47607421875	301.624252238472	-0.000157989501953125	0.476287841796875
790	0.4736328125	301.64865223841	-0.000156524658203125	0.473846435546875
791	0.47119140625	301.673052238349	-0.000160491943359375	0.471405029296875
792	0.46875	301.697452238287	-0.000156097412109375	0.468963623046875
793	0.46630859375	301.721852238226	-0.000163665771484375	0.4664306640625
794	0.4638671875	301.746252238164	-0.00015960693359375	0.46405029296875
795	0.46142578125	301.770652238102	-0.0001629638671875	0.461639404296875
796	0.458984375	301.795052238041	-0.000161224365234375	0.45916748046875
797	0.45654296875	301.819452237979	-0.0001619873046875	0.456756591796875
798	0.4541015625	301.843852237918	-0.000165252685546875	0.45428466796875
799	0.45166015625	301.868252237856	-0.000161865234375	0.451873779296875
800	0.44921875	301.892652237794	-0.0001676025390625	0.449462890625
801	0.44677734375	301.917052237733	-0.000162750244140625	0.44696044921875
802	0.4443359375	301.941452237671	-0.00016912841796875	0.444549560546875
803	0.44189453125	301.96585223761	-0.000165985107421875	0.44207763671875
804	0.439453125	301.990252237548	-0.000167724609375	0.439666748046875
805	0.43701171875	302.014652237486	-0.000167755126953125	0.437286376953125
806	0.4345703125	302.039052237425	-0.000167083740234375	0.434783935546875
807	0.43212890625	302.063452237363	-0.000171356201171875	0.432342529296875
808	0.4296875	302.087852237301	-0.00016754150390625	0.429901123046875
809	0.42724609375	302.11225223724	-0.00017181396484375	0.427490234375
810	0.4248046875	302.136652237178	-0.000167449951171875	0.425079345703125
811	0.42236328125	302.161052237117	-0.000172332763671875	0.42254638671875
812	0.419921875	302.185452237055	-0.00017108154296875	0.420166015625
813	0.41748046875	302.209852236993	-0.000170684814453125	0.417694091796875
814	0.4150390625	302.234252236932	-0.000173004150390625	0.415313720703125
815	0.41259765625	302.25865223687	-0.000170379638671875	0.412841796875
816	0.41015625	302.283052236809	-0.000176116943359375	0.41033935546875
817	0.40771484375	302.307452236747	-0.00017059326171875	0.407928466796875
818	0.4052734375	302.331852236685	-0.000175262451171875	0.405487060546875
819	0.40283203125	302.356252236624	-0.000171875	0.40301513671875
820	0.400390625	302.380652236562	-0.000174835205078125	0.400604248046875
821	0.39794921875	302.405052236501	-0.000175567626953125	0.398223876953125
822	0.3955078125	302.429452236439	-0.000174102783203125	0.395751953125
823	0.39306640625	302.453852236377	-0.000178802490234375	0.393310546875
824	0.390625	302.478252236316	-0.000173797607421875	0.390838623046875
825	0.38818359375	302.502652236254	-0.000180389404296875	0.388397216796875
826	0.3857421875	302.527052236193	-0.0001741943359375	0.385986328125
827	0.38330078125	302.551452236131	-0.00017840576171875	0.383514404296875
828	0.380859375	302.575852236069	-0.000176971435546875	0.381072998046875
829	0.37841796875	302.600252236008	-0.0001788330078125	0.378631591796875
830	0.3759765625	302.624652235946	-0.000181182861328125	0.376220703125
831	0.37353515625	302.649052235885	-0.0001787109375	0.373687744140625
832	0.37109375	302.673452235823	-0.000183380126953125	0.371337890625
833	0.36865234375	302.697852235761	-0.0001790771484375	0.368927001953125
834	0.3662109375	302.7222522357	-0.000184478759765625	0.366424560546875
835	0.36376953125	302.746652235638	-0.00018084716796875	0.363983154296875
836	0.361328125	302.771052235577	-0.00018377685546875	0.361541748046875
837	0.35888671875	302.795452235515	-0.0001837158203125	0.35919189453125
838	0.3564453125	302.819852235453	-0.000182891845703125	0.356781005859375
839	0.35400390625	302.844252235392	-0.00018719482421875	0.35430908203125
840	0.3515625	302.86865223533	-0.000182373046875	0.351806640625
841	0.34912109375	302.893052235269	-0.000187896728515625	0.349334716796875
842	0.3466796875	302.917452235207	-0.000182830810546875	0.34698486328125
843	0.34423828125	302.941852235145	-0.000187896728515625	0.344482421875
844	0.341796875	302.966252235084	-0.00018572998046875	0.342041015625
845	0.33935546875	302.990652235022	-0.00018585205078125	0.339630126953125
846	0.3369140625	303.015052234961	-0.00018768310546875	0.337158203125
847	0.33447265625	303.039452234899	-0.000185089111328125	0.334716796875
848	0.33203125	303.063852234837	-0.00018994140625	0.332275390625
849	0.32958984375	303.088252234776	-0.000184906005859375	0.32989501953125
850	0.3271484375	303.112652234714	-0.00019024658203125	0.327392578125
851	0.32470703125	303.137052234653	-0.000185760498046875	0.324951171875
852	0.322265625	303.161452234591	-0.000189300537109375	0.322509765625
853	0.31982421875	303.185852234529	-0.000188995361328125	0.320098876953125
854	0.3173828125	303.210252234468	-0.000188018798828125	0.317657470703125
855	0.31494140625	303.234652234406	-0.000191314697265625	0.315185546875
856	0.3125	303.259052234344	-0.000187103271484375	0.312744140625
857	0.31005859375	303.283452234283	-0.000193359375	0.310302734375
858	0.3076171875	303.307852234221	-0.000188079833984375	0.307830810546875
859	0.30517578125	303.33225223416	-0.000192291259765625	0.305419921875
860	0.302734375	303.356652234098	-0.00019024658203125	0.303009033203125
861	0.30029296875	303.381052234036	-0.00019146728515625	0.300567626953125
862	0.2978515625	303.405452233975	-0.00019354248046875	0.298065185546875
863	0.29541015625	303.429852233913	-0.000190643310546875	0.295684814453125
864	0.29296875	303.454252233852	-0.000195220947265625	0.293243408203125
865	0.29052734375	303.47865223379	-0.000190093994140625	0.290802001953125
866	0.2880859375	303.503052233728	-0.00019647216796875	0.288360595703125
867	0.28564453125	303.527452233667	-0.00019207763671875	0.285919189453125
868	0.283203125	303.551852233605	-0.000195281982421875	0.283416748046875
869	0.28076171875	303.576252233544	-0.000194671630859375	0.281036376953125
870	0.2783203125	303.600652233482	-0.000194671630859375	0.278564453125
871	0.27587890625	303.62505223342	-0.000198333740234375	0.27618408203125
872	0.2734375	303.649452233359	-0.00019342041015625	0.273712158203125
873	0.27099609375	303.673852233297	-0.000198760986328125	0.271270751953125
874	0.2685546875	303.698252233236	-0.00019366455078125	0.268829345703125
875	0.26611328125	303.722652233174	-0.0001990966796875	0.26629638671875
876	0.263671875	303.747052233112	-0.0001959228515625	0.263916015625
877	0.26123046875	303.771452233051	-0.000197113037109375	0.26153564453125
878	0.2587890625	303.795852232989	-0.00019805908203125	0.25909423828125
879	0.25634765625	303.820252232928	-0.00019610595703125	0.256622314453125
880	0.25390625	303.844652232866	-0.000201202392578125	0.25421142578125
881	0.25146484375	303.869052232804	-0.000195526123046875	0.25177001953125
882	0.2490234375	303.893452232743	-0.000200927734375	0.249298095703125
883	0.24658203125	303.917852232681	-0.0001962890625	0.24688720703125
884	0.244140625	303.94225223262	-0.000200531005859375	0.244415283203125
885	0.24169921875	303.966652232558	-0.000199615478515625	0.24200439453125
886	0.2392578125	303.991052232496	-0.00019891357421875	0.23956298828125
887	0.23681640625	304.015452232435	-0.00020123291015625	0.23712158203125
888	0.234375	304.039852232373	-0.0001973876953125	0.23468017578125
889	0.23193359375	304.064252232312	-0.000203704833984375	0.232208251953125
890	0.2294921875	304.08865223225	-0.00019805908203125	0.229736328125
891	0.22705078125	304.113052232188	-0.0002027587890625	0.227386474609375
892	0.224609375	304.137452232127	-0.000199493408203125	0.224853515625
893	0.22216796875	304.161852232065	-0.000202301025390625	0.222503662109375
894	0.2197265625	304.186252232004	-0.00020361328125	0.220001220703125
895	0.21728515625	304.210652231942	-0.0002017822265625	0.217620849609375
896	0.21484375	304.23505223188	-0.00020587158203125	0.215087890625
897	0.21240234375	304.259452231819	-0.00020074462890625	0.21270751953125
898	0.2099609375	304.283852231757	-0.00020697021484375	0.21026611328125
899	0.20751953125	304.308252231696	-0.000202362060546875	0.207794189453125
900	0.205078125	304.332652231634	-0.0002056884765625	0.20538330078125
901	0.20263671875	304.357052231572	-0.000204254150390625	0.202972412109375
902	0.2001953125	304.381452231511	-0.000204925537109375	0.20050048828125
903	0.19775390625	304.405852231449	-0.00020782470703125	0.198089599609375
904	0.1953125	304.430252231387	-0.00020416259765625	0.195587158203125
905	0.19287109375	304.454652231326	-0.00020904541015625	0.193145751953125
906	0.1904296875	304.479052231264	-0.000203765869140625	0.19073486328125
907	0.18798828125	304.503452231203	-0.00020947265625	0.188262939453125
908	0.185546875	304.527852231141	-0.000206390380859375	0.18585205078125
909	0.18310546875	304.552252231079	-0.0002083740234375	0.1834716796875
910	0.1806640625	304.576652231018	-0.0002091064453125	0.180999755859375
911	0.17822265625	304.601052230956	-0.0002076416015625	0.17852783203125
912	0.17578125	304.625452230895	-0.000211761474609375	0.176055908203125
913	0.17333984375	304.649852230833	-0.0002071533203125	0.17364501953125
914	0.1708984375	304.674252230771	-0.000212646484375	0.171234130859375
915	0.16845703125	304.69865223071	-0.00020758056640625	0.168731689453125
916	0.166015625	304.723052230648	-0.000212127685546875	0.16632080078125
917	0.16357421875	304.747452230587	-0.000210968017578125	0.1639404296875
918	0.1611328125	304.771852230525	-0.000211181640625	0.161468505859375
919	0.15869140625	304.796252230463	-0.0002132568359375	0.159027099609375
920	0.15625	304.820652230402	-0.000210235595703125	0.1566162109375
921	0.15380859375	304.84505223034	-0.000216094970703125	0.154144287109375
922	0.1513671875	304.869452230279	-0.000210052490234375	0.15167236328125
923	0.14892578125	304.893852230217	-0.00021514892578125	0.14923095703125
924	0.146484375	304.918252230155	-0.00021148681640625	0.1468505859375
925	0.14404296875	304.942652230094	-0.00021429443359375	0.1444091796875
926	0.1416015625	304.967052230032	-0.0002147216796875	0.141937255859375
927	0.13916015625	304.991452229971	-0.00021337890625	0.13946533203125
928	0.13671875	305.015852229909	-0.0002169189453125	0.1370849609375
929	0.13427734375	305.040252229847	-0.00021234130859375	0.134613037109375
930	0.1318359375	305.064652229786	-0.00021875	0.13214111328125
931	0.12939453125	305.089052229724	-0.00021368408203125	0.129791259765625
932	0.126953125	305.113452229663	-0.000217437744140625	0.1273193359375
933	0.12451171875	305.137852229601	-0.0002158203125	0.124847412109375
934	0.1220703125	305.162252229539	-0.000217041015625	0.1224365234375
935	0.11962890625	305.186652229478	-0.000219268798828125	0.120025634765625
936	0.1171875	305.211052229416	-0.000215972900390625	0.117584228515625
937	0.11474609375	305.235452229355	-0.00022100830078125	0.115081787109375
938	0.1123046875	305.259852229293	-0.000215606689453125	0.112640380859375
939	0.10986328125	305.284252229231	-0.00022198486328125	0.11016845703125
940	0.107421875	305.30865222917	-0.000218505859375	0.107757568359375
941	0.10498046875	305.333052229108	-0.00022076416015625	0.105316162109375
942	0.1025390625	305.357452229047	-0.000220794677734375	0.1029052734375
943	0.10009765625	305.381852228985	-0.00022003173828125	0.100494384765625
944	0.09765625	305.406252228923	-0.000224517822265625	0.0980224609375
945	0.09521484375	305.430652228862	-0.000219757080078125	0.0955810546875
946	0.0927734375	305.4550522288	-0.00022528076171875	0.09307861328125
947	0.09033203125	305.479452228739	-0.00022015380859375	0.090728759765625
948	0.087890625	305.503852228677	-0.000225250244140625	0.088226318359375
949	0.08544921875	305.528252228615	-0.00022344970703125	0.085845947265625
950	0.0830078125	305.552652228554	-0.00022393798828125	0.0833740234375
951	0.08056640625	305.577052228492	-0.00022564697265625	0.080963134765625
952	0.078125	305.601452228431	-0.0002227783203125	0.078460693359375
953	0.07568359375	305.625852228369	-0.00022845458984375	0.0760498046875
954	0.0732421875	305.650252228307	-0.000222686767578125	0.073638916015625
955	0.07080078125	305.674652228246	-0.0002275390625	0.071197509765625
956	0.068359375	305.699052228184	-0.0002235107421875	0.068756103515625
957	0.06591796875	305.723452228122	-0.000226898193359375	0.0662841796875
958	0.0634765625	305.747852228061	-0.000227020263671875	0.063873291015625
959	0.06103515625	305.772252227999	-0.000225494384765625	0.061492919921875
960	0.05859375	305.796652227938	-0.000228759765625	0.0589599609375
961	0.05615234375	305.821052227876	-0.000224212646484375	0.056549072265625
962	0.0537109375	305.845452227814	-0.00023052978515625	0.054107666015625
963	0.05126953125	305.869852227753	-0.000225067138671875	0.05169677734375
964	0.048828125	305.894252227691	-0.000229034423828125	0.0490234375
965	0.04638671875	305.91865222763	-0.0002266845703125	0.0465789794921875
966	0.0439453125	305.943052227568	-0.000228302001953125	0.0441558837890625
967	0.04150390625	305.967452227506	-0.000230255126953125	0.041668701171875
968	0.0390625	305.991852227445	-0.0002271728515625	0.039239501953125
969	0.03662109375	306.016252227383	-0.000231842041015625	0.03680419921875
970	0.0341796875	306.040652227322	-0.000226531982421875	0.0343475341796875
971	0.03173828125	306.06505222726	-0.000232818603515625	0.0319091796875
972	0.029296875	306.089452227198	-0.000228668212890625	0.0294830322265625
973	0.02685546875	306.113852227137	-0.0002314453125	0.027020263671875
974	0.0244140625	306.138252227075	-0.000231109619140625	0.024609375
975	0.02197265625	306.162652227014	-0.0002308349609375	0.0221527099609375
976	0.01953125	306.187052226952	-0.000234832763671875	0.0197174072265625
977	0.01708984375	306.21145222689	-0.000230316162109375	0.0172637939453125
978	0.0146484375	306.235852226829	-0.000235748291015625	0.0148193359375
979	0.01220703125	306.260252226767	-0.00023028564453125	0.0123779296875
980	0.009765625	306.284652226706	-0.000235687255859375	0.009930419921875
981	0.00732421875	306.309052226644	-0.00023345947265625	0.00749816894531249
982	0.0048828125	306.333452226582	-0.000234344482421875	0.00505676269531249
983	0.00244140625	306.357852226521	-0.000235626220703125	0.0026275634765625
984	0	306.382252226459	-0.000233184814453125	0.000189208984374994
985	0.00244140625	306.406652226398	-0.000237701416015625	0.00263366699218751
986	0.0048828125	306.431052226336	-0.000231292724609375	0.0050628662109375
987	0.00732421875	306.455452226274	-0.000235626220703125	0.00751342773437499
988	0.009765625	306.479852226213	-0.000230377197265625	0.00994873046875
989	0.01220703125	306.504252226151	-0.0002333984375	0.012396240234375
990	0.0146484375	306.52865222609	-0.000232269287109375	0.0148284912109375
991	0.01708984375	306.553052226028	-0.000230499267578125	0.0172698974609375
992	0.01953125	306.577452225966	-0.000232696533203125	0.01971435546875
993	0.02197265625	306.601852225905	-0.0002279052734375	0.0221588134765625
