Index	Potential applied (V)	Time (s)	WE(1).Current (A)	WE(1).Potential (V)
1	0.00244140625	6.66094898318272	-0.000201812744140625	0.00261840820312501
2	0.0048828125	6.68534898312112	-0.000204132080078125	0.00504150390624999
3	0.00732421875	6.70974898305951	-0.0001995849609375	0.00747070312500001
4	0.009765625	6.73414898299791	-0.00020318603515625	0.00992431640624999
5	0.01220703125	6.7585489829363	-0.000197967529296875	0.01236572265625
6	0.0146484375	6.7829489828747	-0.0002015380859375	0.0147979736328125
7	0.01708984375	6.8073489828131	-0.0001993408203125	0.017236328125
8	0.01953125	6.83174898275149	-0.00019903564453125	0.0196685791015625
9	0.02197265625	6.85614898268989	-0.000199920654296875	0.022149658203125
10	0.0244140625	6.88054898262828	-0.00019677734375	0.02457275390625
11	0.02685546875	6.90494898256668	-0.00020111083984375	0.0270263671875
12	0.029296875	6.92934898250508	-0.000195831298828125	0.029443359375
13	0.03173828125	6.95374898244347	-0.000199310302734375	0.0319000244140625
14	0.0341796875	6.97814898238187	-0.00019598388671875	0.0343292236328125
15	0.03662109375	7.00254898232026	-0.000197662353515625	0.0367950439453125
16	0.0390625	7.02694898225866	-0.000198272705078125	0.039202880859375
17	0.04150390625	7.05134898219706	-0.00019580078125	0.0416656494140625
18	0.0439453125	7.07574898213545	-0.00019891357421875	0.044110107421875
19	0.04638671875	7.10014898207385	-0.000194061279296875	0.0465484619140625
20	0.048828125	7.12454898201224	-0.000198974609375	0.048980712890625
21	0.05126953125	7.14894898195064	-0.000194854736328125	0.051422119140625
22	0.0537109375	7.17334898188903	-0.00019671630859375	0.053802490234375
23	0.05615234375	7.19774898182743	-0.000196044921875	0.056243896484375
24	0.05859375	7.22214898176583	-0.000195037841796875	0.058685302734375
25	0.06103515625	7.24654898170422	-0.000198089599609375	0.0611572265625
26	0.0634765625	7.27094898164262	-0.00019342041015625	0.06353759765625
27	0.06591796875	7.29534898158101	-0.000197265625	0.0660400390625
28	0.068359375	7.31974898151941	-0.0001923828125	0.068450927734375
29	0.07080078125	7.34414898145781	-0.00019573974609375	0.070892333984375
30	0.0732421875	7.3685489813962	-0.000194000244140625	0.07330322265625
31	0.07568359375	7.3929489813346	-0.0001932373046875	0.075775146484375
32	0.078125	7.41734898127299	-0.000194671630859375	0.0782470703125
33	0.08056640625	7.44174898121139	-0.000190948486328125	0.080657958984375
34	0.0830078125	7.46614898114979	-0.000195465087890625	0.083099365234375
35	0.08544921875	7.49054898108818	-0.00018994140625	0.0855712890625
36	0.087890625	7.51494898102658	-0.000192840576171875	0.088043212890625
37	0.09033203125	7.53934898096497	-0.000189910888671875	0.09039306640625
38	0.0927734375	7.56374898090337	-0.000190826416015625	0.092926025390625
39	0.09521484375	7.58814898084177	-0.00019171142578125	0.095306396484375
40	0.09765625	7.61254898078016	-0.00018865966796875	0.09771728515625
41	0.10009765625	7.63694898071856	-0.0001917724609375	0.100189208984375
42	0.1025390625	7.66134898065695	-0.00018682861328125	0.102630615234375
43	0.10498046875	7.68574898059535	-0.000191253662109375	0.105010986328125
44	0.107421875	7.71014898053375	-0.000187774658203125	0.107513427734375
45	0.10986328125	7.73454898047214	-0.000189056396484375	0.10992431640625
46	0.1123046875	7.75894898041054	-0.000188568115234375	0.1124267578125
47	0.11474609375	7.78334898034893	-0.000187164306640625	0.1148681640625
48	0.1171875	7.80774898028733	-0.00019073486328125	0.1171875
49	0.11962890625	7.83214898022572	-0.000185882568359375	0.11968994140625
50	0.1220703125	7.85654898016412	-0.0001898193359375	0.122161865234375
51	0.12451171875	7.88094898010252	-0.000185150146484375	0.124603271484375
52	0.126953125	7.90534898004091	-0.000188690185546875	0.127044677734375
53	0.12939453125	7.92974897997931	-0.00018756103515625	0.129486083984375
54	0.1318359375	7.9541489799177	-0.0001866455078125	0.131927490234375
55	0.13427734375	7.9785489798561	-0.00018865966796875	0.1343994140625
56	0.13671875	8.0029489797945	-0.00018450927734375	0.136810302734375
57	0.13916015625	8.02734897973289	-0.00018927001953125	0.139251708984375
58	0.1416015625	8.05174897967129	-0.000184234619140625	0.141632080078125
59	0.14404296875	8.07614897960968	-0.000187042236328125	0.1441650390625
60	0.146484375	8.10054897954808	-0.00018475341796875	0.14654541015625
61	0.14892578125	8.12494897948648	-0.00018548583984375	0.1490478515625
62	0.1513671875	8.14934897942487	-0.00018670654296875	0.15142822265625
63	0.15380859375	8.17374897936327	-0.0001829833984375	0.15386962890625
64	0.15625	8.19814897930166	-0.0001864013671875	0.15631103515625
65	0.15869140625	8.22254897924006	-0.000180908203125	0.158782958984375
66	0.1611328125	8.24694897917846	-0.000185028076171875	0.161224365234375
67	0.16357421875	8.27134897911685	-0.000181488037109375	0.16363525390625
68	0.166015625	8.29574897905525	-0.000181915283203125	0.16607666015625
69	0.16845703125	8.32014897899364	-0.000181732177734375	0.168548583984375
70	0.1708984375	8.34454897893204	-0.000179412841796875	0.17095947265625
71	0.17333984375	8.36894897887043	-0.000182830810546875	0.17340087890625
72	0.17578125	8.39334897880883	-0.00017730712890625	0.175872802734375
73	0.17822265625	8.41774897874723	-0.0001810302734375	0.17828369140625
74	0.1806640625	8.44214897868562	-0.000176544189453125	0.18072509765625
75	0.18310546875	8.46654897862402	-0.000178955078125	0.1832275390625
76	0.185546875	8.49094897856241	-0.000178253173828125	0.185577392578125
77	0.18798828125	8.51534897850081	-0.0001766357421875	0.188018798828125
78	0.1904296875	8.53974897843921	-0.000178497314453125	0.190460205078125
79	0.19287109375	8.5641489783776	-0.00017425537109375	0.19293212890625
80	0.1953125	8.588548978316	-0.000179351806640625	0.19537353515625
81	0.19775390625	8.61294897825439	-0.000174224853515625	0.197845458984375
82	0.2001953125	8.63734897819279	-0.0001771240234375	0.200286865234375
83	0.20263671875	8.66174897813119	-0.000175384521484375	0.202728271484375
84	0.205078125	8.68614897806958	-0.000175262451171875	0.205169677734375
85	0.20751953125	8.71054897800798	-0.000177032470703125	0.207611083984375
86	0.2099609375	8.73494897794637	-0.000173095703125	0.21002197265625
87	0.21240234375	8.75934897788477	-0.000176910400390625	0.212493896484375
88	0.21484375	8.78374897782317	-0.000172027587890625	0.214874267578125
89	0.21728515625	8.80814897776156	-0.000176055908203125	0.21728515625
90	0.2197265625	8.83254897769996	-0.00017327880859375	0.219818115234375
91	0.22216796875	8.85694897763835	-0.000173980712890625	0.222198486328125
92	0.224609375	8.88134897757675	-0.00017413330078125	0.22467041015625
93	0.22705078125	8.90574897751515	-0.00017156982421875	0.22711181640625
94	0.2294921875	8.93014897745354	-0.00017529296875	0.22955322265625
95	0.23193359375	8.95454897739194	-0.000169708251953125	0.2320556640625
96	0.234375	8.97894897733033	-0.000172515869140625	0.23443603515625
97	0.23681640625	9.00334897726873	-0.00016888427734375	0.23681640625
98	0.2392578125	9.02774897720712	-0.000170928955078125	0.239349365234375
99	0.24169921875	9.05214897714552	-0.00017047119140625	0.241790771484375
100	0.244140625	9.07654897708392	-0.000167816162109375	0.244140625
101	0.24658203125	9.10094897702231	-0.000170318603515625	0.24664306640625
102	0.2490234375	9.12534897696071	-0.00016552734375	0.24908447265625
103	0.25146484375	9.1497489768991	-0.00016973876953125	0.251495361328125
104	0.25390625	9.1741489768375	-0.00016522216796875	0.253936767578125
105	0.25634765625	9.1985489767759	-0.00016693115234375	0.25640869140625
106	0.2587890625	9.22294897671429	-0.00016583251953125	0.258819580078125
107	0.26123046875	9.24734897665269	-0.00016485595703125	0.26129150390625
108	0.263671875	9.27174897659108	-0.000166778564453125	0.263671875
109	0.26611328125	9.29614897652948	-0.00016259765625	0.26617431640625
110	0.2685546875	9.32054897646788	-0.000166534423828125	0.2686767578125
111	0.27099609375	9.34494897640627	-0.000161773681640625	0.27105712890625
112	0.2734375	9.36934897634467	-0.000165283203125	0.27349853515625
113	0.27587890625	9.39374897628306	-0.000163818359375	0.275909423828125
114	0.2783203125	9.41814897622146	-0.00016302490234375	0.278350830078125
115	0.28076171875	9.44254897615986	-0.000164306640625	0.28082275390625
116	0.283203125	9.46694897609825	-0.000160675048828125	0.283203125
117	0.28564453125	9.49134897603665	-0.00016497802734375	0.285736083984375
118	0.2880859375	9.51574897597504	-0.000160308837890625	0.2880859375
119	0.29052734375	9.54014897591344	-0.00016351318359375	0.290557861328125
120	0.29296875	9.56454897585184	-0.000160064697265625	0.293060302734375
121	0.29541015625	9.58894897579023	-0.000161834716796875	0.295501708984375
122	0.2978515625	9.61334897572863	-0.000162689208984375	0.2978515625
123	0.30029296875	9.63774897566702	-0.0001600341796875	0.300323486328125
124	0.302734375	9.66214897560542	-0.000162872314453125	0.30279541015625
125	0.30517578125	9.68654897554381	-0.000158203125	0.30523681640625
126	0.3076171875	9.71094897548221	-0.000162628173828125	0.3076171875
127	0.31005859375	9.73534897542061	-0.000158447265625	0.310089111328125
128	0.3125	9.759748975359	-0.000159942626953125	0.31256103515625
129	0.31494140625	9.7841489752974	-0.00015869140625	0.314971923828125
130	0.3173828125	9.80854897523579	-0.000157958984375	0.317413330078125
131	0.31982421875	9.83294897517419	-0.0001610107421875	0.319854736328125
132	0.322265625	9.85734897511259	-0.000155548095703125	0.322296142578125
133	0.32470703125	9.88174897505098	-0.00015972900390625	0.32476806640625
134	0.3271484375	9.90614897498938	-0.00015423583984375	0.327178955078125
135	0.32958984375	9.93054897492777	-0.00015740966796875	0.32965087890625
136	0.33203125	9.95494897486617	-0.0001553955078125	0.33209228515625
137	0.33447265625	9.97934897480457	-0.000154937744140625	0.33447265625
138	0.3369140625	10.003748974743	-0.000156494140625	0.336944580078125
139	0.33935546875	10.0281489746814	-0.000153472900390625	0.339385986328125
140	0.341796875	10.0525489746198	-0.000157318115234375	0.34185791015625
141	0.34423828125	10.0769489745581	-0.0001519775390625	0.344268798828125
142	0.3466796875	10.1013489744965	-0.000154998779296875	0.346710205078125
143	0.34912109375	10.1257489744349	-0.000152069091796875	0.349151611328125
144	0.3515625	10.1501489743733	-0.000153076171875	0.351593017578125
145	0.35400390625	10.1745489743117	-0.000153778076171875	0.35406494140625
146	0.3564453125	10.1989489742501	-0.000150421142578125	0.356475830078125
147	0.35888671875	10.2233489741885	-0.000152587890625	0.358917236328125
148	0.361328125	10.2477489741269	-0.000147491455078125	0.361358642578125
149	0.36376953125	10.2721489740653	-0.000151824951171875	0.363739013671875
150	0.3662109375	10.2965489740037	-0.000147613525390625	0.366302490234375
151	0.36865234375	10.3209489739421	-0.000148895263671875	0.36865234375
152	0.37109375	10.3453489738805	-0.000149139404296875	0.37109375
153	0.37353515625	10.3697489738189	-0.0001473388671875	0.373565673828125
154	0.3759765625	10.3941489737573	-0.00014990234375	0.3759765625
155	0.37841796875	10.4185489736957	-0.0001448974609375	0.37847900390625
156	0.380859375	10.4429489736341	-0.00014892578125	0.380889892578125
157	0.38330078125	10.4673489735725	-0.00014422607421875	0.38336181640625
158	0.3857421875	10.4917489735109	-0.000146484375	0.38580322265625
159	0.38818359375	10.5161489734493	-0.000145355224609375	0.388275146484375
160	0.390625	10.5405489733877	-0.000144561767578125	0.390655517578125
161	0.39306640625	10.5649489733261	-0.000146820068359375	0.39312744140625
162	0.3955078125	10.5893489732645	-0.000142120361328125	0.39556884765625
163	0.39794921875	10.6137489732029	-0.000145965576171875	0.39794921875
164	0.400390625	10.6381489731413	-0.000140472412109375	0.40045166015625
165	0.40283203125	10.6625489730797	-0.000143035888671875	0.40283203125
166	0.4052734375	10.686948973018	-0.00014019775390625	0.40533447265625
167	0.40771484375	10.7113489729564	-0.00013995361328125	0.407745361328125
168	0.41015625	10.7357489728948	-0.000141998291015625	0.410125732421875
169	0.41259765625	10.7601489728332	-0.000138916015625	0.41259765625
170	0.4150390625	10.7845489727716	-0.000142364501953125	0.415069580078125
171	0.41748046875	10.80894897271	-0.000136688232421875	0.417510986328125
172	0.419921875	10.8333489726484	-0.0001405029296875	0.41986083984375
173	0.42236328125	10.8577489725868	-0.00013720703125	0.42242431640625
174	0.4248046875	10.8821489725252	-0.00013702392578125	0.424835205078125
175	0.42724609375	10.9065489724636	-0.00013763427734375	0.42730712890625
176	0.4296875	10.930948972402	-0.00013433837890625	0.4296875
177	0.43212890625	10.9553489723404	-0.00013873291015625	0.43212890625
178	0.4345703125	10.9797489722788	-0.000133056640625	0.434600830078125
179	0.43701171875	11.0041489722172	-0.000136444091796875	0.437042236328125
180	0.439453125	11.0285489721556	-0.000131561279296875	0.439453125
181	0.44189453125	11.052948972094	-0.000133514404296875	0.441925048828125
182	0.4443359375	11.0773489720324	-0.000133392333984375	0.44439697265625
183	0.44677734375	11.1017489719708	-0.000131072998046875	0.446807861328125
184	0.44921875	11.1261489719092	-0.0001329345703125	0.449249267578125
185	0.45166015625	11.1505489718476	-0.00012774658203125	0.45166015625
186	0.4541015625	11.174948971786	-0.000132476806640625	0.4541015625
187	0.45654296875	11.1993489717244	-0.000127716064453125	0.456512451171875
188	0.458984375	11.2237489716628	-0.000129486083984375	0.458953857421875
189	0.46142578125	11.2481489716012	-0.0001279296875	0.46142578125
190	0.4638671875	11.2725489715395	-0.00012738037109375	0.463897705078125
191	0.46630859375	11.2969489714779	-0.0001287841796875	0.466339111328125
192	0.46875	11.3213489714163	-0.000124359130859375	0.46875
193	0.47119140625	11.3457489713547	-0.000127899169921875	0.471160888671875
194	0.4736328125	11.3701489712931	-0.000121734619140625	0.4736328125
195	0.47607421875	11.3945489712315	-0.000125396728515625	0.47607421875
196	0.478515625	11.4189489711699	-0.000123077392578125	0.47845458984375
197	0.48095703125	11.4433489711083	-0.0001221923828125	0.480926513671875
198	0.4833984375	11.4677489710467	-0.000122528076171875	0.483367919921875
199	0.48583984375	11.4921489709851	-0.000118377685546875	0.48583984375
200	0.48828125	11.5165489709235	-0.0001214599609375	0.488311767578125
201	0.49072265625	11.5409489708619	-0.0001156005859375	0.49072265625
202	0.4931640625	11.5653489708003	-0.000119140625	0.493133544921875
203	0.49560546875	11.5897489707387	-0.000115142822265625	0.49560546875
204	0.498046875	11.6141489706771	-0.00011639404296875	0.498077392578125
205	0.50048828125	11.6385489706155	-0.00011602783203125	0.500457763671875
206	0.5029296875	11.6629489705539	-0.00011236572265625	0.502899169921875
207	0.50537109375	11.6873489704923	-0.0001146240234375	0.505340576171875
208	0.5078125	11.7117489704307	-0.000109405517578125	0.507843017578125
209	0.51025390625	11.7361489703691	-0.0001134033203125	0.510223388671875
210	0.5126953125	11.7605489703075	-0.00010858154296875	0.5126953125
211	0.51513671875	11.7849489702459	-0.000110137939453125	0.51513671875
212	0.517578125	11.8093489701843	-0.000108734130859375	0.517547607421875
213	0.52001953125	11.8337489701227	-0.00010711669921875	0.52001953125
214	0.5224609375	11.8581489700611	-0.000108856201171875	0.5224609375
215	0.52490234375	11.8825489699994	-0.00010284423828125	0.524871826171875
216	0.52734375	11.9069489699378	-0.000105377197265625	0.52734375
217	0.52978515625	11.9313489698762	-9.967041015625E-05	0.52978515625
218	0.5322265625	11.9557489698146	-0.00010296630859375	0.532196044921875
219	0.53466796875	11.980148969753	-0.000100372314453125	0.534637451171875
220	0.537109375	12.0045489696914	-9.844970703125E-05	0.537109375
221	0.53955078125	12.0289489696298	-9.89990234375E-05	0.53955078125
222	0.5419921875	12.0533489695682	-9.3780517578125E-05	0.541961669921875
223	0.54443359375	12.0777489695066	-9.7198486328125E-05	0.54443359375
224	0.546875	12.102148969445	-9.088134765625E-05	0.546844482421875
225	0.54931640625	12.1265489693834	-9.1522216796875E-05	0.5494384765625
226	0.5517578125	12.1509489693218	-8.831787109375E-05	0.55181884765625
227	0.55419921875	12.1753489692602	-8.807373046875E-05	0.55426025390625
228	0.556640625	12.1997489691986	-8.819580078125E-05	0.55670166015625
229	0.55908203125	12.224148969137	-8.3465576171875E-05	0.559173583984375
230	0.5615234375	12.2485489690754	-8.5418701171875E-05	0.561553955078125
231	0.56396484375	12.2729489690138	-7.7667236328125E-05	0.563995361328125
232	0.56640625	12.2973489689522	-8.0780029296875E-05	0.56640625
233	0.56884765625	12.3217489688906	-7.6324462890625E-05	0.568878173828125
234	0.5712890625	12.346148968829	-7.5347900390625E-05	0.571319580078125
235	0.57373046875	12.3705489687674	-7.4188232421875E-05	0.573699951171875
236	0.576171875	12.3949489687058	-7.0648193359375E-05	0.576141357421875
237	0.57861328125	12.4193489686442	-7.2845458984375E-05	0.57861328125
238	0.5810546875	12.4437489685826	-6.6558837890625E-05	0.581024169921875
239	0.58349609375	12.4681489685209	-6.87255859375E-05	0.58343505859375
240	0.5859375	12.4925489684593	-6.317138671875E-05	0.5859375
241	0.58837890625	12.5169489683977	-6.4453125E-05	0.58837890625
242	0.5908203125	12.5413489683361	-6.195068359375E-05	0.59075927734375
243	0.59326171875	12.5657489682745	-5.877685546875E-05	0.59326171875
244	0.595703125	12.5901489682129	-5.810546875E-05	0.595703125
245	0.59814453125	12.6145489681513	-5.1239013671875E-05	0.598114013671875
246	0.6005859375	12.6389489680897	-5.4779052734375E-05	0.6005859375
247	0.60302734375	12.6633489680281	-4.84619140625E-05	0.602935791015625
248	0.60546875	12.6877489679665	-4.8736572265625E-05	0.60540771484375
249	0.60791015625	12.7121489679049	-4.48974609375E-05	0.607879638671875
250	0.6103515625	12.7365489678433	-4.30450439453125E-05	0.610382080078125
251	0.61279296875	12.7609489677817	-4.19647216796875E-05	0.612762451171875
252	0.615234375	12.7853489677201	-3.717041015625E-05	0.615203857421875
253	0.61767578125	12.8097489676585	-3.7896728515625E-05	0.61767578125
254	0.6201171875	12.8341489675969	-3.08868408203125E-05	0.620147705078125
255	0.62255859375	12.8585489675353	-3.21502685546875E-05	0.62249755859375
256	0.625	12.8829489674737	-2.6470947265625E-05	0.625
257	0.62744140625	12.9073489674121	-2.4554443359375E-05	0.62738037109375
258	0.6298828125	12.9317489673505	-2.14691162109375E-05	0.629852294921875
259	0.63232421875	12.9561489672889	-1.6326904296875E-05	0.63226318359375
260	0.634765625	12.9805489672273	-1.8353271484375E-05	0.63470458984375
261	0.63720703125	13.0049489671657	-9.9365234375E-06	0.637176513671875
262	0.6396484375	13.0293489671041	-1.19537353515625E-05	0.639556884765625
263	0.64208984375	13.0537489670425	-4.4525146484375E-06	0.64202880859375
264	0.64453125	13.0781489669808	-4.315185546875E-06	0.64447021484375
265	0.64697265625	13.1025489669192	-4.69970703125E-07	0.646881103515625
266	0.6494140625	13.1269489668576	5.499267578125E-06	0.649322509765625
267	0.65185546875	13.151348966796	6.573486328125E-06	0.6517333984375
268	0.654296875	13.1757489667344	1.28875732421875E-05	0.65386962890625
269	0.65673828125	13.2001489666728	1.2127685546875E-05	0.656280517578125
270	0.6591796875	13.2245489666112	2.073974609375E-05	0.65869140625
271	0.66162109375	13.2489489665496	2.20733642578125E-05	0.660919189453125
272	0.6640625	13.273348966488	2.74749755859375E-05	0.66339111328125
273	0.66650390625	13.2977489664264	3.17413330078125E-05	0.6656494140625
274	0.6689453125	13.3221489663648	3.333740234375E-05	0.66876220703125
275	0.67138671875	13.3465489663032	4.22760009765625E-05	0.67120361328125
276	0.673828125	13.3709489662416	4.22515869140625E-05	0.673675537109375
277	0.67626953125	13.39534896618	5.1300048828125E-05	0.67608642578125
278	0.6787109375	13.4197489661184	5.096435546875E-05	0.678466796875
279	0.68115234375	13.4441489660568	5.76171875E-05	0.680938720703125
280	0.68359375	13.4685489659952	6.195068359375E-05	0.683380126953125
281	0.68603515625	13.4929489659336	6.6131591796875E-05	0.685791015625
282	0.6884765625	13.517348965872	7.342529296875E-05	0.68817138671875
283	0.69091796875	13.5417489658104	7.470703125E-05	0.690643310546875
284	0.693359375	13.5661489657488	8.41064453125E-05	0.69305419921875
285	0.69580078125	13.5905489656872	8.6944580078125E-05	0.69549560546875
286	0.6982421875	13.6149489656256	9.5428466796875E-05	0.697906494140625
287	0.70068359375	13.639348965564	9.9090576171875E-05	0.700347900390625
288	0.703125	13.6637489655024	0.000105316162109375	0.70281982421875
289	0.70556640625	13.6881489654407	0.000111968994140625	0.705230712890625
290	0.7080078125	13.7125489653791	0.0001162109375	0.707672119140625
291	0.71044921875	13.7369489653175	0.000126556396484375	0.710052490234375
292	0.712890625	13.7613489652559	0.00012835693359375	0.712493896484375
293	0.71533203125	13.7857489651943	0.000139678955078125	0.71484375
294	0.7177734375	13.8101489651327	0.000143707275390625	0.717315673828125
295	0.72021484375	13.8345489650711	0.00015167236328125	0.7197265625
296	0.72265625	13.8589489650095	0.000158660888671875	0.722137451171875
297	0.72509765625	13.8833489649479	0.00016436767578125	0.724609375
298	0.7275390625	13.9077489648863	0.000175872802734375	0.726959228515625
299	0.72998046875	13.9321489648247	0.000181060791015625	0.72943115234375
300	0.732421875	13.9565489647631	0.000192169189453125	0.731842041015625
301	0.73486328125	13.9809489647015	0.000197265625	0.73419189453125
302	0.7373046875	14.0053489646399	0.0002064208984375	0.73663330078125
303	0.73974609375	14.0297489645783	0.000215576171875	0.739105224609375
304	0.7421875	14.0541489645167	0.0002232666015625	0.74151611328125
305	0.74462890625	14.0785489644551	0.00023480224609375	0.743896484375
306	0.7470703125	14.1029489643935	0.00024078369140625	0.746307373046875
307	0.74951171875	14.1273489643319	0.0002528076171875	0.748748779296875
308	0.751953125	14.1517489642703	0.0002606201171875	0.7513427734375
309	0.75439453125	14.1761489642087	0.000272308349609375	0.753173828125
310	0.7568359375	14.2005489641471	0.000281402587890625	0.7562255859375
311	0.75927734375	14.2249489640855	0.000291015625	0.75836181640625
312	0.76171875	14.2493489640239	0.000302642822265625	0.76080322265625
313	0.76416015625	14.2737489639622	0.00031158447265625	0.76324462890625
314	0.7666015625	14.2981489639006	0.000326324462890625	0.7659912109375
315	0.76904296875	14.322548963839	0.00033453369140625	0.76812744140625
316	0.771484375	14.3469489637774	0.000348114013671875	0.77056884765625
317	0.77392578125	14.3713489637158	0.0003594970703125	0.77301025390625
318	0.7763671875	14.3957489636542	0.000372344970703125	0.7757568359375
319	0.77880859375	14.4201489635926	0.000384979248046875	0.7781982421875
320	0.78125	14.444548963531	0.00039617919921875	0.780029296875
321	0.78369140625	14.4689489634694	0.000411163330078125	0.7830810546875
322	0.7861328125	14.4933489634078	0.000422760009765625	0.7855224609375
323	0.78857421875	14.5177489633462	0.000439422607421875	0.78765869140625
324	0.791015625	14.5421489632846	0.00045166015625	0.789794921875
325	0.79345703125	14.566548963223	0.00046746826171875	0.79254150390625
326	0.7958984375	14.5909489631614	0.000483062744140625	0.7952880859375
327	0.79833984375	14.6153489630998	0.0004969482421875	0.79803466796875
328	0.80078125	14.6397489630382	0.0005145263671875	0.79986572265625
329	0.80322265625	14.6641489629766	0.0005279541015625	0.802001953125
330	0.8056640625	14.688548962915	0.00054718017578125	0.804443359375
331	0.80810546875	14.7129489628534	0.00056121826171875	0.80718994140625
332	0.810546875	14.7373489627918	0.0005780029296875	0.8099365234375
333	0.81298828125	14.7617489627302	0.00059478759765625	0.811767578125
334	0.8154296875	14.7861489626686	0.00061187744140625	0.81451416015625
335	0.81787109375	14.810548962607	0.00062896728515625	0.816650390625
336	0.8203125	14.8349489625454	0.00064666748046875	0.81939697265625
337	0.82275390625	14.8593489624838	0.0006671142578125	0.82183837890625
338	0.8251953125	14.8837489624221	0.0006854248046875	0.8245849609375
339	0.82763671875	14.9081489623605	0.0007049560546875	0.8270263671875
340	0.830078125	14.9325489622989	0.00072235107421875	0.82916259765625
341	0.83251953125	14.9569489622373	0.00074371337890625	0.83160400390625
342	0.8349609375	14.9813489621757	0.00076385498046875	0.833740234375
343	0.83740234375	15.0057489621141	0.00078369140625	0.83648681640625
344	0.83984375	15.0301489620525	0.0008056640625	0.83953857421875
345	0.84228515625	15.0545489619909	0.00082611083984375	0.84136962890625
346	0.8447265625	15.0789489619293	0.0008489990234375	0.843505859375
347	0.84716796875	15.1033489618677	0.00086944580078125	0.84625244140625
348	0.849609375	15.1277489618061	0.0008929443359375	0.848388671875
349	0.85205078125	15.1521489617445	0.0009161376953125	0.850830078125
350	0.8544921875	15.1765489616829	0.00094024658203125	0.8538818359375
351	0.85693359375	15.2009489616213	0.0009637451171875	0.85601806640625
352	0.859375	15.2253489615597	0.00098724365234375	0.858154296875
353	0.86181640625	15.2497489614981	0.00101226806640625	0.8612060546875
354	0.8642578125	15.2741489614365	0.00103607177734375	0.86334228515625
355	0.86669921875	15.2985489613749	0.00106201171875	0.86578369140625
356	0.869140625	15.3229489613133	0.00108734130859375	0.86822509765625
357	0.87158203125	15.3473489612517	0.00111419677734375	0.870361328125
358	0.8740234375	15.3717489611901	0.00113983154296875	0.8734130859375
359	0.87646484375	15.3961489611285	0.0011669921875	0.87493896484375
360	0.87890625	15.4205489610669	0.00119537353515625	0.87799072265625
361	0.88134765625	15.4449489610053	0.001221923828125	0.87982177734375
362	0.8837890625	15.4693489609436	0.0012506103515625	0.88287353515625
363	0.88623046875	15.493748960882	0.001278076171875	0.8856201171875
364	0.888671875	15.5181489608204	0.00130828857421875	0.88836669921875
365	0.89111328125	15.5425489607588	0.00133636474609375	0.8905029296875
366	0.8935546875	15.5669489606972	0.0013690185546875	0.8929443359375
367	0.89599609375	15.5913489606356	0.0013970947265625	0.8953857421875
368	0.8984375	15.615748960574	0.0014276123046875	0.897216796875
369	0.90087890625	15.6401489605124	0.00145904541015625	0.9002685546875
370	0.9033203125	15.6645489604508	0.001490478515625	0.9027099609375
371	0.90576171875	15.6889489603892	0.00152313232421875	0.904541015625
372	0.908203125	15.7133489603276	0.001553955078125	0.9075927734375
373	0.91064453125	15.737748960266	0.00158782958984375	0.909423828125
374	0.9130859375	15.7621489602044	0.00161956787109375	0.9124755859375
375	0.91552734375	15.7865489601428	0.001654052734375	0.914306640625
376	0.91796875	15.8109489600812	0.0016876220703125	0.91705322265625
377	0.92041015625	15.8353489600196	0.00172119140625	0.92010498046875
378	0.9228515625	15.859748959958	0.0017578125	0.92193603515625
379	0.92529296875	15.8841489598964	0.0017919921875	0.92437744140625
380	0.927734375	15.9085489598348	0.00182952880859375	0.9271240234375
381	0.93017578125	15.9329489597732	0.00186370849609375	0.92926025390625
382	0.9326171875	15.9573489597116	0.001900634765625	0.93170166015625
383	0.93505859375	15.98174895965	0.00193603515625	0.93414306640625
384	0.9375	16.0061489595884	0.0019732666015625	0.93658447265625
385	0.93994140625	16.0305489595268	0.00201171875	0.93902587890625
386	0.9423828125	16.0549489594652	0.00204925537109375	0.9417724609375
387	0.94482421875	16.0793489594035	0.0020892333984375	0.94390869140625
388	0.947265625	16.1037489593419	0.002125244140625	0.9466552734375
389	0.94970703125	16.1281489592803	0.00216644287109375	0.9490966796875
390	0.9521484375	16.1525489592187	0.002203369140625	0.9515380859375
391	0.95458984375	16.1769489591571	0.00224365234375	0.9539794921875
392	0.95703125	16.2013489590955	0.00228515625	0.9564208984375
393	0.95947265625	16.2257489590339	0.002325439453125	0.958251953125
394	0.9619140625	16.2501489589723	0.0023681640625	0.96160888671875
395	0.96435546875	16.2745489589107	0.00240692138671875	0.9637451171875
396	0.966796875	16.2989489588491	0.002451171875	0.96588134765625
397	0.96923828125	16.3233489587875	0.00249114990234375	0.96893310546875
398	0.9716796875	16.3477489587259	0.00253509521484375	0.9710693359375
399	0.97412109375	16.3721489586643	0.002576904296875	0.9735107421875
400	0.9765625	16.3965489586027	0.00261962890625	0.975341796875
401	0.97900390625	16.4209489585411	0.0026654052734375	0.9783935546875
402	0.9814453125	16.4453489584795	0.00270782470703125	0.98114013671875
403	0.98388671875	16.4697489584179	0.00275482177734375	0.98236083984375
404	0.986328125	16.4941489583563	0.002796630859375	0.985107421875
405	0.98876953125	16.5185489582947	0.0028436279296875	0.9881591796875
406	0.9912109375	16.5429489582331	0.00288909912109375	0.9906005859375
407	0.99365234375	16.5673489581715	0.0029364013671875	0.99334716796875
408	0.99609375	16.5917489581099	0.00298309326171875	0.99517822265625
409	0.99853515625	16.6161489580483	0.0030279541015625	0.9979248046875
410	1.0009765625	16.6405489579867	0.00307769775390625	0.99945068359375
411	1.00341796875	16.664948957925	0.00312255859375	1.002197265625
412	1.005859375	16.6893489578634	0.00317291259765625	1.004638671875
413	1.00830078125	16.7137489578018	0.00321929931640625	1.0076904296875
414	1.0107421875	16.7381489577402	0.0032684326171875	1.0101318359375
415	1.01318359375	16.7625489576786	0.00331787109375	1.01226806640625
416	1.015625	16.786948957617	0.00336578369140625	1.01470947265625
417	1.01806640625	16.8113489575554	0.00341766357421875	1.0174560546875
418	1.0205078125	16.8357489574938	0.0034637451171875	1.019287109375
419	1.02294921875	16.8601489574322	0.00351593017578125	1.021728515625
420	1.025390625	16.8845489573706	0.00356292724609375	1.02447509765625
421	1.02783203125	16.908948957309	0.003614501953125	1.0272216796875
422	1.0302734375	16.9333489572474	0.003663330078125	1.029052734375
423	1.03271484375	16.9577489571858	0.0037115478515625	1.031494140625
424	1.03515625	16.9821489571242	0.0037628173828125	1.03424072265625
425	1.03759765625	17.0065489570626	0.00380950927734375	1.0369873046875
426	1.0400390625	17.030948957001	0.00386138916015625	1.038818359375
427	1.04248046875	17.0553489569394	0.00390625	1.04156494140625
428	1.044921875	17.0797489568778	0.003955078125	1.043701171875
429	1.04736328125	17.1041489568162	0.00400115966796875	1.04644775390625
430	1.0498046875	17.1285489567546	0.0040478515625	1.04888916015625
431	1.05224609375	17.152948956693	0.0040948486328125	1.05133056640625
432	1.0546875	17.1773489566314	0.004136962890625	1.05316162109375
433	1.05712890625	17.2017489565698	0.00418304443359375	1.0565185546875
434	1.0595703125	17.2261489565082	0.0042230224609375	1.0589599609375
435	1.06201171875	17.2505489564466	0.00426605224609375	1.06109619140625
436	1.064453125	17.2749489563849	0.0043048095703125	1.06353759765625
437	1.06689453125	17.2993489563233	0.00434417724609375	1.065673828125
438	1.0693359375	17.3237489562617	0.0043829345703125	1.06842041015625
439	1.07177734375	17.3481489562001	0.0044189453125	1.07086181640625
440	1.07421875	17.3725489561385	0.0044561767578125	1.07330322265625
441	1.07666015625	17.3969489560769	0.0044891357421875	1.07574462890625
442	1.0791015625	17.4213489560153	0.00452392578125	1.07818603515625
443	1.08154296875	17.4457489559537	0.00455535888671875	1.0809326171875
444	1.083984375	17.4701489558921	0.00458740234375	1.08306884765625
445	1.08642578125	17.4945489558305	0.004617919921875	1.085205078125
446	1.0888671875	17.5189489557689	0.0046466064453125	1.08795166015625
447	1.09130859375	17.5433489557073	0.00467620849609375	1.09100341796875
448	1.09375	17.5677489556457	0.00470245361328125	1.092529296875
449	1.09619140625	17.5921489555841	0.00473114013671875	1.09527587890625
450	1.0986328125	17.6165489555225	0.004755859375	1.0980224609375
451	1.10107421875	17.6409489554609	0.00478179931640625	1.10015869140625
452	1.103515625	17.6653489553993	0.0048065185546875	1.10198974609375
453	1.10595703125	17.6897489553377	0.00483001708984375	1.10504150390625
454	1.1083984375	17.7141489552761	0.0048541259765625	1.107177734375
455	1.11083984375	17.7385489552145	0.00487579345703125	1.10931396484375
456	1.11328125	17.7629489551529	0.00489898681640625	1.11236572265625
457	1.11572265625	17.7873489550913	0.00491973876953125	1.11480712890625
458	1.1181640625	17.8117489550297	0.00494140625	1.11663818359375
459	1.12060546875	17.8361489549681	0.0049615478515625	1.119384765625
460	1.123046875	17.8605489549064	0.00498138427734375	1.121826171875
461	1.12548828125	17.8849489548448	0.00500152587890625	1.124267578125
462	1.1279296875	17.9093489547832	0.0050201416015625	1.12640380859375
463	1.13037109375	17.9337489547216	0.0050396728515625	1.12884521484375
464	1.1328125	17.95814895466	0.005057373046875	1.13189697265625
465	1.13525390625	17.9825489545984	0.00507568359375	1.134033203125
466	1.1376953125	18.0069489545368	0.0050933837890625	1.1358642578125
467	1.14013671875	18.0313489544752	0.00511077880859375	1.1395263671875
468	1.142578125	18.0557489544136	0.00512786865234375	1.14105224609375
469	1.14501953125	18.080148954352	0.00514404296875	1.14349365234375
470	1.1474609375	18.1045489542904	0.00516082763671875	1.14593505859375
471	1.14990234375	18.1289489542288	0.0051763916015625	1.14837646484375
472	1.15234375	18.1533489541672	0.00519287109375	1.15142822265625
473	1.15478515625	18.1777489541056	0.00520782470703125	1.153564453125
474	1.1572265625	18.202148954044	0.00522308349609375	1.15570068359375
475	1.15966796875	18.2265489539824	0.00523834228515625	1.158447265625
476	1.162109375	18.2509489539208	0.00525299072265625	1.16058349609375
477	1.16455078125	18.2753489538592	0.0052679443359375	1.163330078125
478	1.1669921875	18.2997489537976	0.00528167724609375	1.165771484375
479	1.16943359375	18.324148953736	0.0052960205078125	1.16851806640625
480	1.171875	18.3485489536744	0.00530975341796875	1.170654296875
481	1.17431640625	18.3729489536128	0.00532379150390625	1.173095703125
482	1.1767578125	18.3973489535512	0.00533721923828125	1.17584228515625
483	1.17919921875	18.4217489534896	0.00535003662109375	1.17828369140625
484	1.181640625	18.446148953428	0.00536376953125	1.180419921875
485	1.18408203125	18.4705489533663	0.00537628173828125	1.18255615234375
486	1.1865234375	18.4949489533047	0.005389404296875	1.18621826171875
487	1.18896484375	18.5193489532431	0.005401611328125	1.18804931640625
488	1.19140625	18.5437489531815	0.0054144287109375	1.19049072265625
489	1.19384765625	18.5681489531199	0.0054266357421875	1.19293212890625
490	1.1962890625	18.5925489530583	0.00543853759765625	1.19537353515625
491	1.19873046875	18.6169489529967	0.00545074462890625	1.197509765625
492	1.201171875	18.6413489529351	0.0054620361328125	1.199951171875
493	1.19873046875	18.6657489528735	0.0054461669921875	1.197509765625
494	1.1962890625	18.6901489528119	0.00542938232421875	1.1956787109375
495	1.19384765625	18.7145489527503	0.00541290283203125	1.19293212890625
496	1.19140625	18.7389489526887	0.0053955078125	1.18988037109375
497	1.18896484375	18.7633489526271	0.00537841796875	1.18804931640625
498	1.1865234375	18.7877489525655	0.00536102294921875	1.18560791015625
499	1.18408203125	18.8121489525039	0.00534271240234375	1.18316650390625
500	1.181640625	18.8365489524423	0.00532501220703125	1.180419921875
501	1.17919921875	18.8609489523807	0.0053057861328125	1.17828369140625
502	1.1767578125	18.8853489523191	0.00528717041015625	1.17584228515625
503	1.17431640625	18.9097489522575	0.00526763916015625	1.17340087890625
504	1.171875	18.9341489521959	0.00524810791015625	1.170654296875
505	1.16943359375	18.9585489521343	0.00522796630859375	1.168212890625
506	1.1669921875	18.9829489520727	0.00520721435546875	1.1663818359375
507	1.16455078125	19.0073489520111	0.00518646240234375	1.163330078125
508	1.162109375	19.0317489519495	0.00516448974609375	1.160888671875
509	1.15966796875	19.0561489518878	0.00514312744140625	1.158447265625
510	1.1572265625	19.0805489518262	0.00511993408203125	1.156005859375
511	1.15478515625	19.1049489517646	0.0050970458984375	1.15386962890625
512	1.15234375	19.129348951703	0.00507354736328125	1.1517333984375
513	1.14990234375	19.1537489516414	0.005048828125	1.14898681640625
514	1.1474609375	19.1781489515798	0.00502410888671875	1.1468505859375
515	1.14501953125	19.2025489515182	0.00499786376953125	1.14410400390625
516	1.142578125	19.2269489514566	0.004971923828125	1.1419677734375
517	1.14013671875	19.251348951395	0.00494384765625	1.13922119140625
518	1.1376953125	19.2757489513334	0.00491607666015625	1.136474609375
519	1.13525390625	19.3001489512718	0.00488677978515625	1.13433837890625
520	1.1328125	19.3245489512102	0.00485626220703125	1.131591796875
521	1.13037109375	19.3489489511486	0.004825439453125	1.129150390625
522	1.1279296875	19.373348951087	0.00479217529296875	1.12701416015625
523	1.12548828125	19.3977489510254	0.00475921630859375	1.124267578125
524	1.123046875	19.4221489509638	0.00472320556640625	1.121826171875
525	1.12060546875	19.4465489509022	0.0046875	1.119384765625
526	1.1181640625	19.4709489508406	0.00464935302734375	1.1175537109375
527	1.11572265625	19.495348950779	0.00460968017578125	1.11480712890625
528	1.11328125	19.5197489507174	0.0045684814453125	1.11236572265625
529	1.11083984375	19.5441489506558	0.00452484130859375	1.10992431640625
530	1.1083984375	19.5685489505942	0.004481201171875	1.1077880859375
531	1.10595703125	19.5929489505326	0.00443359375	1.104736328125
532	1.103515625	19.617348950471	0.0043853759765625	1.102294921875
533	1.10107421875	19.6417489504094	0.00433349609375	1.10015869140625
534	1.0986328125	19.6661489503477	0.00428070068359375	1.0980224609375
535	1.09619140625	19.6905489502861	0.00422607421875	1.094970703125
536	1.09375	19.7149489502245	0.004168701171875	1.09283447265625
537	1.09130859375	19.7393489501629	0.0041119384765625	1.09039306640625
538	1.0888671875	19.7637489501013	0.00404937744140625	1.087646484375
539	1.08642578125	19.7881489500397	0.0039886474609375	1.08551025390625
540	1.083984375	19.8125489499781	0.00392578125	1.0833740234375
541	1.08154296875	19.8369489499165	0.0038629150390625	1.080322265625
542	1.0791015625	19.8613489498549	0.0037994384765625	1.077880859375
543	1.07666015625	19.8857489497933	0.0037335205078125	1.0760498046875
544	1.07421875	19.9101489497317	0.0036700439453125	1.0736083984375
545	1.07177734375	19.9345489496701	0.0036041259765625	1.070556640625
546	1.0693359375	19.9589489496085	0.00354095458984375	1.06903076171875
547	1.06689453125	19.9833489495469	0.0034747314453125	1.06597900390625
548	1.064453125	20.0077489494853	0.0034112548828125	1.06353759765625
549	1.06201171875	20.0321489494237	0.00334716796875	1.06109619140625
550	1.0595703125	20.0565489493621	0.00328399658203125	1.05865478515625
551	1.05712890625	20.0809489493005	0.0032220458984375	1.0565185546875
552	1.0546875	20.1053489492389	0.003157958984375	1.0540771484375
553	1.05224609375	20.1297489491773	0.00309814453125	1.05133056640625
554	1.0498046875	20.1541489491157	0.00303680419921875	1.04888916015625
555	1.04736328125	20.1785489490541	0.002977294921875	1.04644775390625
556	1.044921875	20.2029489489925	0.00291778564453125	1.04400634765625
557	1.04248046875	20.2273489489309	0.00285919189453125	1.041259765625
558	1.0400390625	20.2517489488692	0.002801513671875	1.038818359375
559	1.03759765625	20.2761489488076	0.00274322509765625	1.0369873046875
560	1.03515625	20.300548948746	0.00268829345703125	1.0345458984375
561	1.03271484375	20.3249489486844	0.00263275146484375	1.03179931640625
562	1.0302734375	20.3493489486228	0.00257843017578125	1.0296630859375
563	1.02783203125	20.3737489485612	0.00252471923828125	1.0272216796875
564	1.025390625	20.3981489484996	0.0024713134765625	1.02447509765625
565	1.02294921875	20.422548948438	0.00242034912109375	1.0223388671875
566	1.0205078125	20.4469489483764	0.00236846923828125	1.019287109375
567	1.01806640625	20.4713489483148	0.002318115234375	1.016845703125
568	1.015625	20.4957489482532	0.00226898193359375	1.01470947265625
569	1.01318359375	20.5201489481916	0.002220458984375	1.011962890625
570	1.0107421875	20.54454894813	0.0021728515625	1.0101318359375
571	1.00830078125	20.5689489480684	0.002125244140625	1.0076904296875
572	1.005859375	20.5933489480068	0.00207916259765625	1.004638671875
573	1.00341796875	20.6177489479452	0.00203369140625	1.0028076171875
574	1.0009765625	20.6421489478836	0.0019891357421875	1.00006103515625
575	0.99853515625	20.666548947822	0.0019464111328125	0.9979248046875
576	0.99609375	20.6909489477604	0.00190338134765625	0.994873046875
577	0.99365234375	20.7153489476988	0.00186187744140625	0.9930419921875
578	0.9912109375	20.7397489476372	0.001820068359375	0.9906005859375
579	0.98876953125	20.7641489475756	0.00178009033203125	0.98785400390625
580	0.986328125	20.788548947514	0.0017401123046875	0.9857177734375
581	0.98388671875	20.8129489474524	0.00170196533203125	0.98297119140625
582	0.9814453125	20.8373489473908	0.00166473388671875	0.9808349609375
583	0.97900390625	20.8617489473291	0.00162750244140625	0.9783935546875
584	0.9765625	20.8861489472675	0.001591796875	0.9759521484375
585	0.97412109375	20.9105489472059	0.00155548095703125	0.972900390625
586	0.9716796875	20.9349489471443	0.00152130126953125	0.97015380859375
587	0.96923828125	20.9593489470827	0.00148681640625	0.968017578125
588	0.966796875	20.9837489470211	0.0014532470703125	0.96588134765625
589	0.96435546875	21.0081489469595	0.0014208984375	0.96343994140625
590	0.9619140625	21.0325489468979	0.0013885498046875	0.9613037109375
591	0.95947265625	21.0569489468363	0.0013592529296875	0.9588623046875
592	0.95703125	21.0813489467747	0.0013275146484375	0.955810546875
593	0.95458984375	21.1057489467131	0.001298828125	0.95367431640625
594	0.9521484375	21.1301489466515	0.0012689208984375	0.9515380859375
595	0.94970703125	21.1545489465899	0.00124114990234375	0.94970703125
596	0.947265625	21.1789489465283	0.00121337890625	0.94635009765625
597	0.94482421875	21.2033489464667	0.00118438720703125	0.943603515625
598	0.9423828125	21.2277489464051	0.0011590576171875	0.94085693359375
599	0.93994140625	21.2521489463435	0.00113189697265625	0.938720703125
600	0.9375	21.2765489462819	0.0011083984375	0.936279296875
601	0.93505859375	21.3009489462203	0.00108184814453125	0.933837890625
602	0.9326171875	21.3253489461587	0.0010577392578125	0.931396484375
603	0.93017578125	21.3497489460971	0.00103546142578125	0.928955078125
604	0.927734375	21.3741489460355	0.0010107421875	0.92681884765625
605	0.92529296875	21.3985489459739	0.00099212646484375	0.92437744140625
606	0.9228515625	21.4229489459123	0.00096649169921875	0.921630859375
607	0.92041015625	21.4473489458506	0.000947265625	0.9197998046875
608	0.91796875	21.471748945789	0.00092498779296875	0.91705322265625
609	0.91552734375	21.4961489457274	0.00090545654296875	0.91461181640625
610	0.9130859375	21.5205489456658	0.00088409423828125	0.91278076171875
611	0.91064453125	21.5449489456042	0.00086334228515625	0.9100341796875
612	0.908203125	21.5693489455426	0.00084716796875	0.90728759765625
613	0.90576171875	21.593748945481	0.00082611083984375	0.90484619140625
614	0.9033203125	21.6181489454194	0.000809326171875	0.90240478515625
615	0.90087890625	21.6425489453578	0.0007904052734375	0.899658203125
616	0.8984375	21.6669489452962	0.00077423095703125	0.8978271484375
617	0.89599609375	21.6913489452346	0.0007562255859375	0.8953857421875
618	0.8935546875	21.715748945173	0.00073883056640625	0.89324951171875
619	0.89111328125	21.7401489451114	0.00072479248046875	0.89019775390625
620	0.888671875	21.7645489450498	0.0007049560546875	0.88775634765625
621	0.88623046875	21.7889489449882	0.00069183349609375	0.88531494140625
622	0.8837890625	21.8133489449266	0.0006744384765625	0.88287353515625
623	0.88134765625	21.837748944865	0.00066131591796875	0.880126953125
624	0.87890625	21.8621489448034	0.00064544677734375	0.87799072265625
625	0.87646484375	21.8865489447418	0.00063018798828125	0.87615966796875
626	0.8740234375	21.9109489446802	0.00061676025390625	0.87310791015625
627	0.87158203125	21.9353489446186	0.0006011962890625	0.870361328125
628	0.869140625	21.959748944557	0.00059173583984375	0.86822509765625
629	0.86669921875	21.9841489444954	0.00057525634765625	0.86578369140625
630	0.8642578125	22.0085489444338	0.0005645751953125	0.863037109375
631	0.86181640625	22.0329489443722	0.00055206298828125	0.8612060546875
632	0.859375	22.0573489443105	0.00053985595703125	0.8587646484375
633	0.85693359375	22.0817489442489	0.00052886962890625	0.85601806640625
634	0.8544921875	22.1061489441873	0.00051361083984375	0.85357666015625
635	0.85205078125	22.1305489441257	0.0005059814453125	0.8514404296875
636	0.849609375	22.1549489440641	0.000491607666015625	0.8489990234375
637	0.84716796875	22.1793489440025	0.00048309326171875	0.845947265625
638	0.8447265625	22.2037489439409	0.0004716796875	0.8441162109375
639	0.84228515625	22.2281489438793	0.0004588623046875	0.8416748046875
640	0.83984375	22.2525489438177	0.00044927978515625	0.838623046875
641	0.83740234375	22.2769489437561	0.00043707275390625	0.8367919921875
642	0.8349609375	22.3013489436945	0.00042913818359375	0.8343505859375
643	0.83251953125	22.3257489436329	0.000417022705078125	0.83221435546875
644	0.830078125	22.3501489435713	0.00040985107421875	0.82916259765625
645	0.82763671875	22.3745489435097	0.000397247314453125	0.8270263671875
646	0.8251953125	22.3989489434481	0.000387542724609375	0.82427978515625
647	0.82275390625	22.4233489433865	0.000379486083984375	0.8221435546875
648	0.8203125	22.4477489433249	0.00036773681640625	0.81939697265625
649	0.81787109375	22.4721489432633	0.000361907958984375	0.8172607421875
650	0.8154296875	22.4965489432017	0.00035015869140625	0.8148193359375
651	0.81298828125	22.5209489431401	0.000344696044921875	0.8123779296875
652	0.810546875	22.5453489430785	0.000332733154296875	0.80963134765625
653	0.80810546875	22.5697489430169	0.0003250732421875	0.806884765625
654	0.8056640625	22.5941489429553	0.000317474365234375	0.80413818359375
655	0.80322265625	22.6185489428937	0.000307830810546875	0.80230712890625
656	0.80078125	22.642948942832	0.0003026123046875	0.79986572265625
657	0.79833984375	22.6673489427704	0.000290130615234375	0.79742431640625
658	0.7958984375	22.6917489427088	0.000286834716796875	0.7952880859375
659	0.79345703125	22.7161489426472	0.000276123046875	0.7928466796875
660	0.791015625	22.7405489425856	0.000270172119140625	0.79010009765625
661	0.78857421875	22.764948942524	0.0002620849609375	0.7879638671875
662	0.7861328125	22.7893489424624	0.000253387451171875	0.7855224609375
663	0.78369140625	22.8137489424008	0.00024932861328125	0.78277587890625
664	0.78125	22.8381489423392	0.0002392578125	0.78125
665	0.77880859375	22.8625489422776	0.000236328125	0.77789306640625
666	0.7763671875	22.886948942216	0.000226654052734375	0.775146484375
667	0.77392578125	22.9113489421544	0.000221435546875	0.77362060546875
668	0.771484375	22.9357489420928	0.000215179443359375	0.7708740234375
669	0.76904296875	22.9601489420312	0.000206695556640625	0.7684326171875
670	0.7666015625	22.9845489419696	0.00020330810546875	0.76629638671875
671	0.76416015625	23.008948941908	0.000192169189453125	0.76385498046875
672	0.76171875	23.0333489418464	0.000189453125	0.76080322265625
673	0.75927734375	23.0577489417848	0.00018072509765625	0.75836181640625
674	0.7568359375	23.0821489417232	0.000177093505859375	0.755615234375
675	0.75439453125	23.1065489416616	0.00016876220703125	0.7537841796875
676	0.751953125	23.1309489416	0.000163360595703125	0.75103759765625
677	0.74951171875	23.1553489415384	0.000159942626953125	0.74932861328125
678	0.7470703125	23.1797489414768	0.000150909423828125	0.74688720703125
679	0.74462890625	23.2041489414152	0.00014935302734375	0.74444580078125
680	0.7421875	23.2285489413536	0.0001392822265625	0.742034912109375
681	0.73974609375	23.2529489412919	0.000136077880859375	0.739532470703125
682	0.7373046875	23.2773489412303	0.00012908935546875	0.73712158203125
683	0.73486328125	23.3017489411687	0.00012347412109375	0.73468017578125
684	0.732421875	23.3261489411071	0.000119415283203125	0.732208251953125
685	0.72998046875	23.3505489410455	0.000110626220703125	0.729827880859375
686	0.7275390625	23.3749489409839	0.00010980224609375	0.727386474609375
687	0.72509765625	23.3993489409223	0.00010150146484375	0.724884033203125
688	0.72265625	23.4237489408607	0.000100341796875	0.7225341796875
689	0.72021484375	23.4481489407991	9.283447265625E-05	0.72003173828125
690	0.7177734375	23.4725489407375	8.8104248046875E-05	0.717620849609375
691	0.71533203125	23.4969489406759	8.441162109375E-05	0.715179443359375
692	0.712890625	23.5213489406143	7.62939453125E-05	0.712738037109375
693	0.71044921875	23.5457489405527	7.611083984375E-05	0.710296630859375
694	0.7080078125	23.5701489404911	6.7230224609375E-05	0.707733154296875
695	0.70556640625	23.5945489404295	6.756591796875E-05	0.705291748046875
696	0.703125	23.6189489403679	6.0638427734375E-05	0.702850341796875
697	0.70068359375	23.6433489403063	5.9112548828125E-05	0.700469970703125
698	0.6982421875	23.6677489402447	5.4779052734375E-05	0.697998046875
699	0.69580078125	23.6921489401831	4.840087890625E-05	0.695587158203125
700	0.693359375	23.7165489401215	4.8736572265625E-05	0.69317626953125
701	0.69091796875	23.7409489400599	4.01580810546875E-05	0.690704345703125
702	0.6884765625	23.7653489399983	4.16778564453125E-05	0.688262939453125
703	0.68603515625	23.7897489399367	3.37799072265625E-05	0.685821533203125
704	0.68359375	23.8141489398751	3.16131591796875E-05	0.68341064453125
705	0.68115234375	23.8385489398134	2.738037109375E-05	0.68096923828125
706	0.6787109375	23.8629489397518	2.32147216796875E-05	0.6785888671875
707	0.67626953125	23.8873489396902	2.1575927734375E-05	0.676116943359375
708	0.673828125	23.9117489396286	1.461181640625E-05	0.6737060546875
709	0.67138671875	23.936148939567	1.54083251953125E-05	0.67132568359375
710	0.6689453125	23.9605489395054	1.01165771484375E-05	0.6688232421875
711	0.66650390625	23.9849489394438	8.8134765625E-06	0.666412353515625
712	0.6640625	24.0093489393822	3.7017822265625E-06	0.66400146484375
713	0.66162109375	24.0337489393206	-4.302978515625E-07	0.661468505859375
714	0.6591796875	24.058148939259	-1.519775390625E-06	0.6590576171875
715	0.65673828125	24.0825489391974	-8.7432861328125E-06	0.65667724609375
716	0.654296875	24.1069489391358	-7.55615234375E-06	0.654388427734375
717	0.65185546875	24.1313489390742	-1.422119140625E-05	0.65179443359375
718	0.6494140625	24.1557489390126	-1.336669921875E-05	0.649566650390625
719	0.64697265625	24.180148938951	-1.77337646484375E-05	0.6470947265625
720	0.64453125	24.2045489388894	-2.04498291015625E-05	0.64483642578125
721	0.64208984375	24.2289489388278	-2.213134765625E-05	0.64227294921875
722	0.6396484375	24.2533489387662	-2.91290283203125E-05	0.639984130859375
723	0.63720703125	24.2777489387046	-2.664794921875E-05	0.63751220703125
724	0.634765625	24.302148938643	-3.3843994140625E-05	0.635040283203125
725	0.63232421875	24.3265489385814	-3.201904296875E-05	0.63226318359375
726	0.6298828125	24.3509489385198	-3.75946044921875E-05	0.629913330078125
727	0.62744140625	24.3753489384582	-3.93310546875E-05	0.627410888671875
728	0.625	24.3997489383966	-4.0380859375E-05	0.625
729	0.62255859375	24.424148938335	-4.49127197265625E-05	0.62249755859375
730	0.6201171875	24.4485489382733	-4.3597412109375E-05	0.620086669921875
731	0.61767578125	24.4729489382117	-4.9896240234375E-05	0.617645263671875
732	0.615234375	24.4973489381501	-4.852294921875E-05	0.615142822265625
733	0.61279296875	24.5217489380885	-5.3131103515625E-05	0.612823486328125
734	0.6103515625	24.5461489380269	-5.31005859375E-05	0.610260009765625
735	0.60791015625	24.5705489379653	-5.523681640625E-05	0.607879638671875
736	0.60546875	24.5949489379037	-6.097412109375E-05	0.60540771484375
737	0.60302734375	24.6193489378421	-5.7952880859375E-05	0.60302734375
738	0.6005859375	24.6437489377805	-6.3812255859375E-05	0.6005859375
739	0.59814453125	24.6681489377189	-6.1981201171875E-05	0.59814453125
740	0.595703125	24.6925489376573	-6.70166015625E-05	0.595703125
741	0.59326171875	24.7169489375957	-6.75048828125E-05	0.593292236328125
742	0.5908203125	24.7413489375341	-6.854248046875E-05	0.5908203125
743	0.58837890625	24.7657489374725	-7.0831298828125E-05	0.588348388671875
744	0.5859375	24.7901489374109	-7.0892333984375E-05	0.585906982421875
745	0.58349609375	24.8145489373493	-7.7362060546875E-05	0.58349609375
746	0.5810546875	24.8389489372877	-7.403564453125E-05	0.5810546875
747	0.57861328125	24.8633489372261	-7.904052734375E-05	0.57861328125
748	0.576171875	24.8877489371645	-7.7117919921875E-05	0.576171875
749	0.57373046875	24.9121489371029	-8.1634521484375E-05	0.573822021484375
750	0.5712890625	24.9365489370413	-8.5174560546875E-05	0.571258544921875
751	0.56884765625	24.9609489369797	-8.3221435546875E-05	0.56890869140625
752	0.56640625	24.9853489369181	-8.8623046875E-05	0.566497802734375
753	0.56396484375	25.0097489368565	-8.599853515625E-05	0.563995361328125
754	0.5615234375	25.0341489367948	-9.2010498046875E-05	0.5615234375
755	0.55908203125	25.0585489367332	-9.0606689453125E-05	0.559173583984375
756	0.556640625	25.0829489366716	-9.368896484375E-05	0.55670166015625
757	0.55419921875	25.10734893661	-9.576416015625E-05	0.554290771484375
758	0.5517578125	25.1317489365484	-9.5123291015625E-05	0.551788330078125
759	0.54931640625	25.1561489364868	-0.00010009765625	0.54937744140625
760	0.546875	25.1805489364252	-9.7137451171875E-05	0.54693603515625
761	0.54443359375	25.2049489363636	-0.000102630615234375	0.544464111328125
762	0.5419921875	25.229348936302	-9.9945068359375E-05	0.542144775390625
763	0.53955078125	25.2537489362404	-0.000103363037109375	0.539642333984375
764	0.537109375	25.2781489361788	-0.000104583740234375	0.53717041015625
765	0.53466796875	25.3025489361172	-0.000103973388671875	0.53472900390625
766	0.5322265625	25.3269489360556	-0.00010821533203125	0.532318115234375
767	0.52978515625	25.351348935994	-0.00010479736328125	0.5299072265625
768	0.52734375	25.3757489359324	-0.00011126708984375	0.527435302734375
769	0.52490234375	25.4001489358708	-0.00010675048828125	0.52496337890625
770	0.5224609375	25.4245489358092	-0.000110443115234375	0.522552490234375
771	0.52001953125	25.4489489357476	-0.00011187744140625	0.52008056640625
772	0.517578125	25.473348935686	-0.00011224365234375	0.5177001953125
773	0.51513671875	25.4977489356244	-0.00011627197265625	0.5152587890625
774	0.5126953125	25.5221489355628	-0.0001134033203125	0.5128173828125
775	0.51025390625	25.5465489355012	-0.000117706298828125	0.510345458984375
776	0.5078125	25.5709489354396	-0.00011431884765625	0.507904052734375
777	0.50537109375	25.595348935378	-0.00011859130859375	0.505523681640625
778	0.5029296875	25.6197489353164	-0.00011810302734375	0.5030517578125
779	0.50048828125	25.6441489352547	-0.0001190185546875	0.500640869140625
780	0.498046875	25.6685489351931	-0.00012164306640625	0.4981689453125
781	0.49560546875	25.6929489351315	-0.00012030029296875	0.49566650390625
782	0.4931640625	25.7173489350699	-0.000125762939453125	0.4932861328125
783	0.49072265625	25.7417489350083	-0.000121551513671875	0.4908447265625
784	0.48828125	25.7661489349467	-0.000125396728515625	0.488433837890625
785	0.48583984375	25.7905489348851	-0.000124542236328125	0.4859619140625
786	0.4833984375	25.8149489348235	-0.000125701904296875	0.483551025390625
787	0.48095703125	25.8393489347619	-0.000128265380859375	0.481109619140625
788	0.478515625	25.8637489347003	-0.000125823974609375	0.4786376953125
789	0.47607421875	25.8881489346387	-0.000130950927734375	0.476226806640625
790	0.4736328125	25.9125489345771	-0.000126983642578125	0.4737548828125
791	0.47119140625	25.9369489345155	-0.000132354736328125	0.4713134765625
792	0.46875	25.9613489344539	-0.00013067626953125	0.4688720703125
793	0.46630859375	25.9857489343923	-0.00013134765625	0.4664306640625
794	0.4638671875	26.0101489343307	-0.0001324462890625	0.464019775390625
795	0.46142578125	26.0345489342691	-0.00013153076171875	0.4615478515625
796	0.458984375	26.0589489342075	-0.000136016845703125	0.459136962890625
797	0.45654296875	26.0833489341459	-0.000131103515625	0.456695556640625
798	0.4541015625	26.1077489340843	-0.000135986328125	0.454254150390625
799	0.45166015625	26.1321489340227	-0.00013275146484375	0.451873779296875
800	0.44921875	26.1565489339611	-0.000135589599609375	0.4493408203125
801	0.44677734375	26.1809489338995	-0.000135406494140625	0.44696044921875
802	0.4443359375	26.2053489338379	-0.000135009765625	0.4444580078125
803	0.44189453125	26.2297489337762	-0.000138336181640625	0.44207763671875
804	0.439453125	26.2541489337146	-0.00013470458984375	0.439605712890625
805	0.43701171875	26.278548933653	-0.00014013671875	0.43719482421875
806	0.4345703125	26.3029489335914	-0.00013653564453125	0.4346923828125
807	0.43212890625	26.3273489335298	-0.00013922119140625	0.432281494140625
808	0.4296875	26.3517489334682	-0.000138458251953125	0.429840087890625
809	0.42724609375	26.3761489334066	-0.00013885498046875	0.427398681640625
810	0.4248046875	26.400548933345	-0.0001424560546875	0.42498779296875
811	0.42236328125	26.4249489332834	-0.0001385498046875	0.4224853515625
812	0.419921875	26.4493489332218	-0.000143707275390625	0.42010498046875
813	0.41748046875	26.4737489331602	-0.000139678955078125	0.41766357421875
814	0.4150390625	26.4981489330986	-0.00014385986328125	0.415191650390625
815	0.41259765625	26.522548933037	-0.00014385986328125	0.412841796875
816	0.41015625	26.5469489329754	-0.000143829345703125	0.410369873046875
817	0.40771484375	26.5713489329138	-0.000146026611328125	0.40789794921875
818	0.4052734375	26.5957489328522	-0.000143157958984375	0.405426025390625
819	0.40283203125	26.6201489327906	-0.000148651123046875	0.402984619140625
820	0.400390625	26.644548932729	-0.00014459228515625	0.400604248046875
821	0.39794921875	26.6689489326674	-0.000147857666015625	0.39813232421875
822	0.3955078125	26.6933489326058	-0.000146270751953125	0.395751953125
823	0.39306640625	26.7177489325442	-0.000148193359375	0.393310546875
824	0.390625	26.7421489324826	-0.0001502685546875	0.39080810546875
825	0.38818359375	26.766548932421	-0.00014715576171875	0.388336181640625
826	0.3857421875	26.7909489323594	-0.000151519775390625	0.38592529296875
827	0.38330078125	26.8153489322978	-0.000146636962890625	0.383544921875
828	0.380859375	26.8397489322361	-0.00015118408203125	0.38104248046875
829	0.37841796875	26.8641489321745	-0.0001490478515625	0.378631591796875
830	0.3759765625	26.8885489321129	-0.00015081787109375	0.37615966796875
831	0.37353515625	26.9129489320513	-0.000151397705078125	0.37371826171875
832	0.37109375	26.9373489319897	-0.00014959716796875	0.371307373046875
833	0.36865234375	26.9617489319281	-0.00015386962890625	0.368865966796875
834	0.3662109375	26.9861489318665	-0.0001490478515625	0.36639404296875
835	0.36376953125	27.0105489318049	-0.0001529541015625	0.36395263671875
836	0.361328125	27.0349489317433	-0.0001497802734375	0.361541748046875
837	0.35888671875	27.0593489316817	-0.000152252197265625	0.35906982421875
838	0.3564453125	27.0837489316201	-0.000152740478515625	0.35662841796875
839	0.35400390625	27.1081489315585	-0.000151092529296875	0.354248046875
840	0.3515625	27.1325489314969	-0.0001552734375	0.351776123046875
841	0.34912109375	27.1569489314353	-0.000151092529296875	0.349365234375
842	0.3466796875	27.1813489313737	-0.00015643310546875	0.346832275390625
843	0.34423828125	27.2057489313121	-0.00015313720703125	0.344390869140625
844	0.341796875	27.2301489312505	-0.00015557861328125	0.342010498046875
845	0.33935546875	27.2545489311889	-0.00015557861328125	0.339569091796875
846	0.3369140625	27.2789489311273	-0.00015576171875	0.337127685546875
847	0.33447265625	27.3033489310657	-0.000159942626953125	0.334686279296875
848	0.33203125	27.3277489310041	-0.000155792236328125	0.332244873046875
849	0.32958984375	27.3521489309425	-0.00016033935546875	0.32977294921875
850	0.3271484375	27.3765489308809	-0.000156951904296875	0.32733154296875
851	0.32470703125	27.4009489308193	-0.000160675048828125	0.324920654296875
852	0.322265625	27.4253489307577	-0.00016021728515625	0.322479248046875
853	0.31982421875	27.449748930696	-0.00015985107421875	0.32000732421875
854	0.3173828125	27.4741489306344	-0.000162261962890625	0.317626953125
855	0.31494140625	27.4985489305728	-0.000159271240234375	0.315185546875
856	0.3125	27.5229489305112	-0.00016412353515625	0.312713623046875
857	0.31005859375	27.5473489304496	-0.000159820556640625	0.310272216796875
858	0.3076171875	27.571748930388	-0.0001630859375	0.307830810546875
859	0.30517578125	27.5961489303264	-0.00016241455078125	0.305419921875
860	0.302734375	27.6205489302648	-0.000163360595703125	0.302978515625
861	0.30029296875	27.6449489302032	-0.000165557861328125	0.300506591796875
862	0.2978515625	27.6693489301416	-0.000162322998046875	0.29803466796875
863	0.29541015625	27.69374893008	-0.000166656494140625	0.295623779296875
864	0.29296875	27.7181489300184	-0.000161712646484375	0.293182373046875
865	0.29052734375	27.7425489299568	-0.000166229248046875	0.290679931640625
866	0.2880859375	27.7669489298952	-0.000164154052734375	0.28826904296875
867	0.28564453125	27.7913489298336	-0.00016497802734375	0.285797119140625
868	0.283203125	27.815748929772	-0.0001658935546875	0.283416748046875
869	0.28076171875	27.8401489297104	-0.0001634521484375	0.281005859375
870	0.2783203125	27.8645489296488	-0.000168548583984375	0.278564453125
871	0.27587890625	27.8889489295872	-0.000164306640625	0.276123046875
872	0.2734375	27.9133489295256	-0.000168212890625	0.27362060546875
873	0.27099609375	27.937748929464	-0.000165130615234375	0.271240234375
874	0.2685546875	27.9621489294024	-0.00016796875	0.268768310546875
875	0.26611328125	27.9865489293408	-0.000168975830078125	0.266357421875
876	0.263671875	28.0109489292792	-0.000167083740234375	0.26385498046875
877	0.26123046875	28.0353489292175	-0.0001707763671875	0.261444091796875
878	0.2587890625	28.0597489291559	-0.00016668701171875	0.259002685546875
879	0.25634765625	28.0841489290943	-0.000172088623046875	0.256561279296875
880	0.25390625	28.1085489290327	-0.0001688232421875	0.254119873046875
881	0.25146484375	28.1329489289711	-0.000171051025390625	0.251739501953125
882	0.2490234375	28.1573489289095	-0.000171417236328125	0.249267578125
883	0.24658203125	28.1817489288479	-0.00017071533203125	0.246826171875
884	0.244140625	28.2061489287863	-0.000175079345703125	0.244384765625
885	0.24169921875	28.2305489287247	-0.0001708984375	0.241943359375
886	0.2392578125	28.2549489286631	-0.000175384521484375	0.239471435546875
887	0.23681640625	28.2793489286015	-0.00017132568359375	0.237060546875
888	0.234375	28.3037489285399	-0.00017510986328125	0.234619140625
889	0.23193359375	28.3281489284783	-0.00017498779296875	0.232147216796875
890	0.2294921875	28.3525489284167	-0.00017425537109375	0.229705810546875
891	0.22705078125	28.3769489283551	-0.000176727294921875	0.227294921875
892	0.224609375	28.4013489282935	-0.000173126220703125	0.224853515625
893	0.22216796875	28.4257489282319	-0.000178192138671875	0.222412109375
894	0.2197265625	28.4501489281703	-0.000173492431640625	0.22003173828125
895	0.21728515625	28.4745489281087	-0.00017626953125	0.217529296875
896	0.21484375	28.4989489280471	-0.000174835205078125	0.215087890625
897	0.21240234375	28.5233489279855	-0.00017529296875	0.212615966796875
898	0.2099609375	28.5477489279239	-0.0001781005859375	0.210174560546875
899	0.20751953125	28.5721489278623	-0.000174835205078125	0.207733154296875
900	0.205078125	28.5965489278007	-0.000179046630859375	0.205291748046875
901	0.20263671875	28.6209489277391	-0.000174407958984375	0.20294189453125
902	0.2001953125	28.6453489276774	-0.00017889404296875	0.200439453125
903	0.19775390625	28.6697489276158	-0.00017694091796875	0.197998046875
904	0.1953125	28.6941489275542	-0.000177764892578125	0.195556640625
905	0.19287109375	28.7185489274926	-0.00017926025390625	0.193115234375
906	0.1904296875	28.742948927431	-0.0001767578125	0.190673828125
907	0.18798828125	28.7673489273694	-0.000181976318359375	0.188232421875
908	0.185546875	28.7917489273078	-0.000177276611328125	0.185791015625
909	0.18310546875	28.8161489272462	-0.0001815185546875	0.183380126953125
910	0.1806640625	28.8405489271846	-0.00017913818359375	0.180877685546875
911	0.17822265625	28.864948927123	-0.0001812744140625	0.178497314453125
912	0.17578125	28.8893489270614	-0.00018280029296875	0.17608642578125
913	0.17333984375	28.9137489269998	-0.0001807861328125	0.173583984375
914	0.1708984375	28.9381489269382	-0.00018505859375	0.171142578125
915	0.16845703125	28.9625489268766	-0.000180419921875	0.168731689453125
916	0.166015625	28.986948926815	-0.000185699462890625	0.166290283203125
917	0.16357421875	29.0113489267534	-0.00018231201171875	0.163848876953125
918	0.1611328125	29.0357489266918	-0.000184417724609375	0.161407470703125
919	0.15869140625	29.0601489266302	-0.00018487548828125	0.158935546875
920	0.15625	29.0845489265686	-0.000183746337890625	0.15655517578125
921	0.15380859375	29.108948926507	-0.000187713623046875	0.15411376953125
922	0.1513671875	29.1333489264454	-0.0001829833984375	0.151641845703125
923	0.14892578125	29.1577489263838	-0.000187652587890625	0.149200439453125
924	0.146484375	29.1821489263222	-0.0001837158203125	0.14678955078125
925	0.14404296875	29.2065489262606	-0.000187103271484375	0.1444091796875
926	0.1416015625	29.2309489261989	-0.000187164306640625	0.141876220703125
927	0.13916015625	29.2553489261373	-0.00018609619140625	0.13946533203125
928	0.13671875	29.2797489260757	-0.000188720703125	0.137054443359375
929	0.13427734375	29.3041489260141	-0.000184906005859375	0.134552001953125
930	0.1318359375	29.3285489259525	-0.000190338134765625	0.132110595703125
931	0.12939453125	29.3529489258909	-0.0001859130859375	0.129669189453125
932	0.126953125	29.3773489258293	-0.00018896484375	0.127227783203125
933	0.12451171875	29.4017489257677	-0.00018780517578125	0.1248779296875
934	0.1220703125	29.4261489257061	-0.000188262939453125	0.122406005859375
935	0.11962890625	29.4505489256445	-0.00019091796875	0.119964599609375
936	0.1171875	29.4749489255829	-0.00018719482421875	0.117462158203125
937	0.11474609375	29.4993489255213	-0.000191741943359375	0.114990234375
938	0.1123046875	29.5237489254597	-0.000187286376953125	0.11260986328125
939	0.10986328125	29.5481489253981	-0.000191864013671875	0.11016845703125
940	0.107421875	29.5725489253365	-0.000190399169921875	0.107696533203125
941	0.10498046875	29.5969489252749	-0.000190673828125	0.105255126953125
942	0.1025390625	29.6213489252133	-0.000192626953125	0.102874755859375
943	0.10009765625	29.6457489251517	-0.000189849853515625	0.100433349609375
944	0.09765625	29.6701489250901	-0.0001949462890625	0.09796142578125
945	0.09521484375	29.6945489250285	-0.00019061279296875	0.09552001953125
946	0.0927734375	29.7189489249669	-0.0001943359375	0.093109130859375
947	0.09033203125	29.7433489249053	-0.000192138671875	0.09063720703125
948	0.087890625	29.7677489248437	-0.000193939208984375	0.0882568359375
949	0.08544921875	29.7921489247821	-0.00019549560546875	0.085723876953125
950	0.0830078125	29.8165489247205	-0.000192779541015625	0.083282470703125
951	0.08056640625	29.8409489246588	-0.00019683837890625	0.080810546875
952	0.078125	29.8653489245972	-0.00019195556640625	0.078521728515625
953	0.07568359375	29.8897489245356	-0.000196868896484375	0.07598876953125
954	0.0732421875	29.914148924474	-0.000193939208984375	0.073577880859375
955	0.07080078125	29.9385489244124	-0.000195220947265625	0.071075439453125
956	0.068359375	29.9629489243508	-0.00019561767578125	0.06866455078125
957	0.06591796875	29.9873489242892	-0.000194061279296875	0.066253662109375
958	0.0634765625	30.0117489242276	-0.0001981201171875	0.063812255859375
959	0.06103515625	30.036148924166	-0.000193359375	0.0614013671875
960	0.05859375	30.0605489241044	-0.000197418212890625	0.0589599609375
961	0.05615234375	30.0849489240428	-0.000193695068359375	0.05645751953125
962	0.0537109375	30.1093489239812	-0.000196533203125	0.054046630859375
963	0.05126953125	30.1337489239196	-0.000196685791015625	0.051605224609375
964	0.048828125	30.158148923858	-0.000195068359375	0.0489959716796875
965	0.04638671875	30.1825489237964	-0.00019793701171875	0.046563720703125
966	0.0439453125	30.2069489237348	-0.000193878173828125	0.04412841796875
967	0.04150390625	30.2313489236732	-0.00019915771484375	0.0416839599609375
968	0.0390625	30.2557489236116	-0.000194915771484375	0.0392333984375
969	0.03662109375	30.28014892355	-0.00019757080078125	0.0367950439453125
970	0.0341796875	30.3045489234884	-0.000196746826171875	0.034356689453125
971	0.03173828125	30.3289489234268	-0.000196807861328125	0.03192138671875
972	0.029296875	30.3533489233652	-0.000199951171875	0.029461669921875
973	0.02685546875	30.3777489233036	-0.0001961669921875	0.0270172119140625
974	0.0244140625	30.402148923242	-0.00020074462890625	0.0245941162109375
975	0.02197265625	30.4265489231803	-0.00019635009765625	0.0221466064453125
976	0.01953125	30.4509489231187	-0.00020074462890625	0.01968994140625
977	0.01708984375	30.4753489230571	-0.00019970703125	0.0172454833984375
978	0.0146484375	30.4997489229955	-0.000199798583984375	0.014801025390625
979	0.01220703125	30.5241489229339	-0.000201873779296875	0.01240234375
980	0.009765625	30.5485489228723	-0.000199005126953125	0.0099334716796875
981	0.00732421875	30.5729489228107	-0.00020428466796875	0.0075042724609375
982	0.0048828125	30.5973489227491	-0.00019952392578125	0.00505676269531249
983	0.00244140625	30.6217489226875	-0.000203277587890625	0.00264892578125001
984	0	30.6461489226259	-0.00020123291015625	0.000170898437499997
985	0.00244140625	30.6705489225643	-0.00020196533203125	0.00263671875
986	0.0048828125	30.6949489225027	-0.000203216552734375	0.0050628662109375
