Index	Time (s)	WE(1).Potential (V)	Corrected time (s)	dWE(1).Potential/dt (V/s)	OCP value (V)
1	31.7298579198898	0.6427001953125	0	0	0.654883291207108
2	31.8298579196373	0.64483642578125	0.0999999997475243	0.0213622227311134	
3	31.9298579193849	0.64727783203125	0.199999999495049	0.0259398426860571	
4	32.0298579191324	0.64727783203125	0.299999999242573	-0.0213622227311134	
5	32.1298579188799	0.6500244140625	0.399999998990097	0.058491799980402	
6	32.2298579186274	0.6500244140625	0.499999998737621	-0.0320433340966702	
7	32.329857918375	0.6500244140625	0.599999998485146	0.00915523897856474	
8	32.4298579181225	0.6500244140625	0.69999999823267	0	
9	32.52985791787	0.64971923828125	0.799999997980194	-0.00559486821293831	
10	32.6298579176175	0.64971923828125	0.899999997727718	0.00356037053279579	
11	32.7298579173651	0.6500244140625	0.999999997475243	0.00457761948928237	
12	32.8298579171126	0.65032958984375	1.09999999722277	0.00203449744731188	
13	32.9298579168601	0.650634765625	1.19999999697029	0.00305174617096782	
14	33.0298579166076	0.650634765625	1.29999999671782	-0.00254312180913985	
15	33.1298579163551	0.65216064453125	1.39999999646534	0.0289915893226862	
16	33.2298579161027	0.65216064453125	1.49999999621286	-0.0178018528968096	
17	33.3298579158502	0.65185546875	1.59999999596039	-0.00050862436182797	
18	33.4298579155977	0.65155029296875	1.69999999570791	-0.00203449744731188	
19	33.5298579153452	0.65093994140625	1.79999999545544	-0.00864661391824484	
20	33.6298579150928	0.65093994140625	1.89999999520296	0.00610349234193563	
21	33.7298579148403	0.65185546875	1.99999999495049	0.0147501062601805	
22	33.8298579145878	0.65277099609375	2.09999999469801	0.00610349234193563	
23	33.9298579143353	0.654296875	2.19999999444553	0.0203449744731188	
24	34.0298579140829	0.65399169921875	2.29999999419306	-0.0203449744731188	
25	34.1298579138304	0.65216064453125	2.39999999394058	-0.0249225944280624	
26	34.2298579135779	0.65277099609375	2.49999999368811	0.0315347090363503	
27	34.3298579133254	0.65277099609375	2.59999999343563	-0.0132242338731885	
28	34.429857913073	0.65277099609375	2.69999999318316	0.00203449744731188	
29	34.5298579128205	0.653076171875	2.79999999293068	0.00559486821293831	
30	34.629857912568	0.6536865234375	2.8999999926782	0.00762936566025019	
31	34.7298579123155	0.65277099609375	2.99999999242573	-0.022888096049428	
32	34.8298579120631	0.65277099609375	3.09999999217325	0.0127156088128686	
33	34.9298579118106	0.65277099609375	3.19999999192078	-0.00305174617096782	
34	35.0298579115581	0.65277099609375	3.2999999916683	0	
35	35.1298579113056	0.65277099609375	3.39999999141583	0	
36	35.2298579110532	0.6536865234375	3.49999999116335	0.0167846046388149	
37	35.3298579108007	0.65399169921875	3.59999999091087	-0.0050862436182797	
38	35.4298579105482	0.654296875	3.6999999906584	0.0050862436182797	
39	35.5298579102957	0.65460205078125	3.79999999040592	0.00305174617096782	
40	35.6298579100433	0.654296875	3.89999999015345	-0.00813798978924751	
41	35.7298579097908	0.654296875	3.99999998990097	0.00457761948928237	
42	35.8298579095383	0.65399169921875	4.0999999896485	-0.00661211693659425	
43	35.9298579092858	0.654296875	4.19999998939602	0.00915523897856474	
44	36.0298579090334	0.6536865234375	4.29999998914354	-0.0157673545181751	
45	36.1298579087809	0.6536865234375	4.39999998889107	0.00813798978924751	
46	36.2298579085284	0.65399169921875	4.49999998863859	0.00356037053279579	
47	36.3298579082759	0.65521240234375	4.59999998838612	0.0188191011548042	
48	36.4298579080235	0.65460205078125	4.69999998813364	-0.0244139693677425	
49	36.529857907771	0.65399169921875	4.79999998788116	0	
50	36.6298579075185	0.65338134765625	4.89999998762869	-0.00610349234193563	
51	36.729857907266	0.65399169921875	4.99999998737621	0.016275979578495	
52	36.8298579070135	0.6536865234375	5.09999998712374	-0.0147501062601805	
53	36.9298579067611	0.65399169921875	5.19999998687126	0.0111897364258766	
54	37.0298579065086	0.65399169921875	5.29999998661879	-0.00457761948928237	
55	37.1298579062561	0.6549072265625	5.39999998636631	0.0178018528968096	
56	37.2298579060036	0.6549072265625	5.49999998611383	-0.0106811113655567	
57	37.3298579057512	0.654296875	5.59999998586136	-0.00813798978924751	
58	37.4298579054987	0.65399169921875	5.69999998560888	0.00152587308548391	
59	37.5298579052462	0.65338134765625	5.79999998535641	-0.00966386310756207	
60	37.6298579049937	0.65399169921875	5.89999998510393	0.0172932278364897	
61	37.7298579047413	0.654296875	5.99999998485146	-0.00356037053279579	
62	37.8298579044888	0.655517578125	6.09999998459898	0.0208535995334387	
63	37.9298579042363	0.65521240234375	6.1999999843465	-0.0188191011548042	
64	38.0298579039838	0.65521240234375	6.29999998409403	0.00762936566025019	
65	38.1298579037314	0.65460205078125	6.39999998384155	-0.0122069846838713	
66	38.2298579034789	0.65399169921875	6.49999998358908	-0.00406899489462376	
67	38.3298579032264	0.6536865234375	6.5999999833366	-0.00050862436182797	
68	38.4298579029739	0.65338134765625	6.69999998308413	-0.00406899489462376	
69	38.5298579027215	0.654296875	6.79999998283165	0.0193277262151241	
70	38.629857902469	0.6549072265625	6.89999998257917	-0.00050862436182797	
71	38.7298579022165	0.65521240234375	6.9999999823267	0.00152587308548391	
72	38.829857901964	0.6549072265625	7.09999998207422	-0.00712074106559157	
73	38.9298579017116	0.654296875	7.19999998182175	-0.00661211693659425	
74	39.0298579014591	0.65460205078125	7.29999998156927	0.0116983605548739	
75	39.1298579012066	0.65399169921875	7.3999999813168	-0.0167846046388149	
76	39.2298579009541	0.653076171875	7.49999998106432	-0.00864661391824484	
77	39.3298579007017	0.65399169921875	7.59999998081184	0.0254312176257372	
78	39.4298579004492	0.65460205078125	7.69999998055937	-0.00254312180913985	
79	39.5298579001967	0.654296875	7.79999998030689	-0.00966386310756207	
80	39.6298578999442	0.654296875	7.89999998005442	0.00559486821293831	
81	39.7298578996918	0.65460205078125	7.99999997980194	0.00457761948928237	
82	39.8298578994393	0.65277099609375	8.09999997954947	-0.0371295772492886	
83	39.9298578991868	0.6524658203125	8.19999997929699	0.0167846046388149	
84	40.0298578989343	0.65155029296875	8.29999997904451	-0.0193277262151241	
85	40.1298578986818	0.65277099609375	8.39999997879204	0.0320433340966702	
86	40.2298578984294	0.654296875	8.49999997853956	0.0106811113655567	
87	40.3298578981769	0.65460205078125	8.59999997828709	-0.00813798978924751	
88	40.4298578979244	0.65399169921875	8.69999997803461	-0.00966386310756207	
89	40.5298578976719	0.6536865234375	8.79999997778214	0.00254312180913985	
90	40.6298578974195	0.653076171875	8.89999997752966	-0.00966386310756207	
91	40.729857897167	0.6536865234375	8.99999997727718	0.0172932278364897	
92	40.8298578969145	0.6536865234375	9.09999997702471	-0.00915523897856474	
93	40.929857896662	0.6536865234375	9.19999997677223	0.00203449744731188	
94	41.0298578964096	0.654296875	9.29999997651976	0.0111897364258766	
95	41.1298578961571	0.654296875	9.39999997626728	-0.00712074106559157	
96	41.2298578959046	0.65521240234375	9.49999997601481	0.0188191011548042	
97	41.3298578956521	0.6549072265625	9.59999997576233	-0.016275979578495	
98	41.4298578953997	0.6549072265625	9.69999997550985	0.00661211693659425	
99	41.5298578951472	0.6549072265625	9.79999997525738	-0.00101724872365594	
100	41.6298578948947	0.65399169921875	9.8999999750049	-0.0167846046388149	
101	41.7298578946422	0.654296875	9.99999997475243	0.016275979578495	
102	41.8298578943898	0.654296875	10.0999999745	-0.00661211693659425	
103	41.9298578941373	0.65460205078125	10.1999999742475	0.00661211693659425	
104	42.0298578938848	0.654296875	10.299999973995	-0.00915523897856474	
105	42.1298578936323	0.653076171875	10.3999999737425	-0.0178018528968096	
106	42.2298578933799	0.653076171875	10.49999997349	0.0132242338731885	
107	42.3298578931274	0.65277099609375	10.5999999732376	-0.00966386310756207	
108	42.4298578928749	0.65277099609375	10.6999999729851	0.00356037053279579	
109	42.5298578926224	0.65399169921875	10.7999999727326	0.0213622227311134	
110	42.62985789237	0.65399169921875	10.8999999724801	-0.0142414821311831	
111	42.7298578921175	0.65460205078125	10.9999999722277	0.0152587313205004	
112	42.829857891865	0.65399169921875	11.0999999719752	-0.0183104779571295	
113	42.9298578916125	0.654296875	11.1999999717227	0.0147501062601805	
114	43.0298578913601	0.6524658203125	11.2999999714702	-0.0391640774905682	
115	43.1298578911076	0.65277099609375	11.3999999712178	0.0279743392020464	
116	43.2298578908551	0.6524658203125	11.4999999709653	-0.0152587313205004	
117	43.3298578906026	0.6524658203125	11.5999999707128	0.00457761948928237	
118	43.4298578903501	0.65277099609375	11.6999999704603	0.00457761948928237	
119	43.5298578900977	0.6536865234375	11.7999999702079	0.0132242338731885	
120	43.6298578898452	0.6536865234375	11.8999999699554	-0.00966386310756207	
121	43.7298578895927	0.65338134765625	11.9999999697029	-0.00254312180913985	
122	43.8298578893402	0.65277099609375	12.0999999694504	-0.00762936566025019	
123	43.9298578890878	0.65185546875	12.199999969198	-0.0106811113655567	
124	44.0298578888353	0.65216064453125	12.2999999689455	0.0142414821311831	
125	44.1298578885828	0.653076171875	12.399999968693	0.0101724872365594	
126	44.2298578883303	0.65185546875	12.4999999684405	-0.0320433340966702	
127	44.3298578880779	0.65185546875	12.5999999681881	0.0172932278364897	
128	44.4298578878254	0.6524658203125	12.6999999679356	0.00712074106559157	
129	44.5298578875729	0.65185546875	12.7999999676831	-0.0183104779571295	
130	44.6298578873204	0.65155029296875	12.8999999674306	0.00356037053279579	
131	44.729857887068	0.6512451171875	12.9999999671782	-0.00406899489462376	
132	44.8298578868155	0.65093994140625	13.0999999669257	-0.00305174617096782	
133	44.929857886563	0.65093994140625	13.1999999666732	0.00254312180913985	
134	45.0298578863105	0.64971923828125	13.2999999664207	-0.0233967211097479	
135	45.1298578860581	0.6500244140625	13.3999999661683	0.0198363494127989	
136	45.2298578858056	0.650634765625	13.4999999659158	0.00356037053279579	
137	45.3298578855531	0.65155029296875	13.5999999656633	0.0106811113655567	
138	45.4298578853006	0.65093994140625	13.6999999654108	-0.0198363494127989	
139	45.5298578850482	0.650634765625	13.7999999651583	0.00457761948928237	
140	45.6298578847957	0.650634765625	13.8999999649059	0.00152587308548391	
141	45.7298578845432	0.65093994140625	13.9999999646534	0.00457761948928237	
142	45.8298578842907	0.65155029296875	14.0999999644009	0.00762936566025019	
143	45.9298578840383	0.65185546875	14.1999999641484	-0.00050862436182797	
144	46.0298578837858	0.65216064453125	14.299999963896	0.00406899489462376	
145	46.1298578835333	0.6524658203125	14.3999999636435	0.00305174617096782	
146	46.2298578832808	0.65277099609375	14.499999963391	0.00305174617096782	
147	46.3298578830284	0.65216064453125	14.5999999631385	-0.0137328580021858	
148	46.4298578827759	0.65216064453125	14.6999999628861	0.00813798978924751	
149	46.5298578825234	0.6524658203125	14.7999999626336	0.00356037053279579	
150	46.6298578822709	0.65399169921875	14.8999999623811	0.0244139693677425	
151	46.7298578820185	0.6536865234375	14.9999999621286	-0.0223794728517532	
152	46.829857881766	0.654296875	15.0999999618762	0.0198363494127989	
153	46.9298578815135	0.6536865234375	15.1999999616237	-0.0193277262151241	
154	47.029857881261	0.65460205078125	15.2999999613712	0.0259398426860571	
155	47.1298578810085	0.653076171875	15.3999999611187	-0.0406899489462376	
156	47.2298578807561	0.65277099609375	15.4999999608663	0.0152587313205004	
157	47.3298578805036	0.653076171875	15.5999999606138	0.00406899489462376	
158	47.4298578802511	0.65277099609375	15.6999999603613	-0.0101724872365594	
159	47.5298578799986	0.6536865234375	15.7999999601088	0.0213622227311134	
160	47.6298578797462	0.65460205078125	15.8999999598564	0.0050862436182797	
161	47.7298578794937	0.65460205078125	15.9999999596039	-0.00762936566025019	
162	47.8298578792412	0.65460205078125	16.0999999593514	0.00305174617096782	
163	47.9298578789887	0.654296875	16.1999999590989	-0.00559486821293831	
164	48.0298578787363	0.65338134765625	16.2999999588465	-0.0132242338731885	
165	48.1298578784838	0.653076171875	16.399999958594	0.00406899489462376	
166	48.2298578782313	0.65338134765625	16.4999999583415	0.00610349234193563	
167	48.3298578779788	0.6536865234375	16.599999958089	0.00101724872365594	
168	48.4298578777264	0.65399169921875	16.6999999578366	0.00305174617096782	
169	48.5298578774739	0.6536865234375	16.7999999575841	-0.00813798978924751	
170	48.6298578772214	0.6536865234375	16.8999999573316	0.00457761948928237	
171	48.7298578769689	0.653076171875	16.9999999570791	-0.0122069846838713	
172	48.8298578767165	0.65277099609375	17.0999999568267	0.00152587308548391	
173	48.929857876464	0.65185546875	17.1999999565742	-0.0152587313205004	
174	49.0298578762115	0.65185546875	17.2999999563217	0.00966386310756207	
175	49.129857875959	0.65277099609375	17.3999999560692	0.0137328580021858	
176	49.2298578757066	0.653076171875	17.4999999558167	-0.0050862436182797	
177	49.3298578754541	0.65338134765625	17.5999999555643	0.0050862436182797	
178	49.4298578752016	0.65338134765625	17.6999999553118	-0.00254312180913985	
179	49.5298578749491	0.65277099609375	17.7999999550593	-0.0101724872365594	
180	49.6298578746967	0.6524658203125	17.8999999548068	0.00152587308548391	
181	49.7298578744442	0.65216064453125	17.9999999545544	-0.00406899489462376	
182	49.8298578741917	0.65216064453125	18.0999999543019	0.00254312180913985	
183	49.9298578739392	0.6524658203125	18.1999999540494	0.00457761948928237	
184	50.0298578736868	0.6524658203125	18.2999999537969	-0.00356037053279579	
185	50.1298578734343	0.65277099609375	18.3999999535445	0.00661211693659425	
186	50.2298578731818	0.65216064453125	18.499999953292	-0.0147501062601805	
187	50.3298578729293	0.65155029296875	18.5999999530395	-0.00305174617096782	
188	50.4298578726768	0.6512451171875	18.699999952787	-0.00050862436182797	
189	50.5298578724244	0.6512451171875	18.7999999525346	0.00152587308548391	
190	50.6298578721719	0.6512451171875	18.8999999522821	-0.00101724872365594	
191	50.7298578719194	0.65185546875	18.9999999520296	0.0111897364258766	
192	50.8298578716669	0.65185546875	19.0999999517771	-0.00712074106559157	
193	50.9298578714145	0.65185546875	19.1999999515247	0.00203449744731188	
194	51.029857871162	0.65155029296875	19.2999999512722	-0.00559486821293831	
195	51.1298578709095	0.65155029296875	19.3999999510197	0.00356037053279579	
196	51.229857870657	0.65155029296875	19.4999999507672	-0.00101724872365594	
197	51.3298578704046	0.6512451171875	19.5999999505148	-0.00559486821293831	
198	51.4298578701521	0.650634765625	19.6999999502623	-0.00762936566025019	
199	51.5298578698996	0.65155029296875	19.7999999500098	0.022888096049428	
200	51.6298578696471	0.65155029296875	19.8999999497573	-0.0127156088128686	
201	51.7298578693947	0.6512451171875	19.9999999495049	-0.00254312180913985	
202	51.8298578691422	0.65155029296875	20.0999999492524	0.00915523897856474	
203	51.9298578688897	0.65155029296875	20.1999999489999	-0.00457761948928237	
204	52.0298578686372	0.65093994140625	20.2999999487474	-0.0101724872365594	
205	52.1298578683848	0.65032958984375	20.399999948495	-0.00406899489462376	
206	52.2298578681323	0.64971923828125	20.4999999482425	-0.00610349234193563	
207	52.3298578678798	0.65155029296875	20.59999994799	0.0386554524302483	
208	52.4298578676273	0.65185546875	20.6999999477375	-0.0178018528968096	
209	52.5298578673749	0.65216064453125	20.799999947485	0.00813798978924751	
210	52.6298578671224	0.65216064453125	20.8999999472326	-0.00254312180913985	
211	52.7298578668699	0.65155029296875	20.9999999469801	-0.0101724872365594	
212	52.8298578666174	0.65155029296875	21.0999999467276	0.00712074106559157	
213	52.929857866365	0.65185546875	21.1999999464751	0.00356037053279579	
214	53.0298578661125	0.65155029296875	21.2999999462227	-0.00915523897856474	
215	53.12985786586	0.65185546875	21.3999999459702	0.0101724872365594	
216	53.2298578656075	0.6524658203125	21.4999999457177	0.00661211693659425	
217	53.3298578653551	0.65277099609375	21.5999999454652	-0.00050862436182797	
218	53.4298578651026	0.653076171875	21.6999999452128	0.00406899489462376	
219	53.5298578648501	0.653076171875	21.7999999449603	-0.00254312180913985	
220	53.6298578645976	0.65277099609375	21.8999999447078	-0.00457761948928237	
221	53.7298578643451	0.65277099609375	21.9999999444553	0.00356037053279579	
222	53.8298578640927	0.65155029296875	22.0999999442029	-0.0233967211097479	
223	53.9298578638402	0.65185546875	22.1999999439504	0.0198363494127989	
224	54.0298578635877	0.653076171875	22.2999999436979	0.0147501062601805	
225	54.1298578633352	0.6524658203125	22.3999999434454	-0.0244139693677425	
226	54.2298578630828	0.65277099609375	22.499999943193	0.0167846046388149	
227	54.3298578628303	0.65216064453125	22.5999999429405	-0.0167846046388149	
228	54.4298578625778	0.65185546875	22.699999942688	0.00254312180913985	
229	54.5298578623253	0.65185546875	22.7999999424355	0.00152587308548391	
230	54.6298578620729	0.6512451171875	22.8999999421831	-0.0122069846838713	
231	54.7298578618204	0.6512451171875	22.9999999419306	0.00712074106559157	
232	54.8298578615679	0.65185546875	23.0999999416781	0.00915523897856474	
233	54.9298578613154	0.6524658203125	23.1999999414256	0.00406899489462376	
234	55.029857861063	0.65185546875	23.2999999411732	-0.016275979578495	
235	55.1298578608105	0.65093994140625	23.3999999409207	-0.00762936566025019	
236	55.229857860558	0.6500244140625	23.4999999406682	-0.00813798978924751	
237	55.3298578603055	0.64971923828125	23.5999999404157	0.00203449744731188	
238	55.4298578600531	0.64971923828125	23.6999999401633	0.00050862436182797	
239	55.5298578598006	0.650634765625	23.7999999399108	0.0157673545181751	
240	55.6298578595481	0.65093994140625	23.8999999396583	-0.0050862436182797	
241	55.7298578592956	0.6512451171875	23.9999999394058	0.0050862436182797	
242	55.8298578590432	0.65155029296875	24.0999999391533	0.00305174617096782	
243	55.9298578587907	0.65185546875	24.1999999389009	0.00305174617096782	
244	56.0298578585382	0.65032958984375	24.2999999386484	-0.0305174626410007	
245	56.1298578582857	0.65093994140625	24.3999999383959	0.0300088375806808	
246	56.2298578580333	0.6494140625	24.4999999381434	-0.0401813238859177	
247	56.3298578577808	0.64971923828125	24.599999937891	0.0254312176257372	
248	56.4298578575283	0.6500244140625	24.6999999376385	-0.00305174617096782	
249	56.5298578572758	0.65032958984375	24.799999937386	0.00305174617096782	
250	56.6298578570234	0.650634765625	24.8999999371335	0.00305174617096782	
251	56.7298578567709	0.6500244140625	24.9999999368811	-0.0137328580021858	
252	56.8298578565184	0.65032958984375	25.0999999366286	0.0137328580021858	
253	56.9298578562659	0.65093994140625	25.1999999363761	0.00559486821293831	
254	57.0298578560135	0.65032958984375	25.2999999361236	-0.0172932278364897	
255	57.129857855761	0.6512451171875	25.3999999358712	0.0259398426860571	
256	57.2298578555085	0.650634765625	25.4999999356187	-0.0239053443074226	
257	57.329857855256	0.65185546875	25.5999999353662	0.0325519591569901	
258	57.4298578550035	0.65093994140625	25.6999999351137	-0.03306058421731	
259	57.5298578547511	0.65032958984375	25.7999999348613	0.00356037053279579	
260	57.6298578544986	0.64971923828125	25.8999999346088	-0.00712074106559157	
261	57.7298578542461	0.64910888671875	25.9999999343563	-0.00610349234193563	
262	57.8298578539936	0.64971923828125	26.0999999341038	0.016275979578495	
263	57.9298578537412	0.6500244140625	26.1999999338514	-0.00356037053279579	
264	58.0298578534887	0.6500244140625	26.2999999335989	-0.00152587308548391	
265	58.1298578532362	0.65093994140625	26.3999999333464	0.0178018528968096	
266	58.2298578529837	0.65093994140625	26.4999999330939	-0.0106811113655567	
267	58.3298578527313	0.6512451171875	26.5999999328415	0.00864661391824484	
268	58.4298578524788	0.6512451171875	26.699999932589	-0.00356037053279579	
269	58.5298578522263	0.65093994140625	26.7999999323365	-0.00457761948928237	
270	58.6298578519738	0.65093994140625	26.899999932084	0.00356037053279579	
271	58.7298578517214	0.65032958984375	26.9999999318316	-0.0122069846838713	
272	58.8298578514689	0.650634765625	27.0999999315791	0.0127156088128686	
273	58.9298578512164	0.65093994140625	27.1999999313266	0	
274	59.0298578509639	0.6512451171875	27.2999999310741	0.00305174617096782	
275	59.1298578507115	0.65185546875	27.3999999308217	0.00864661391824484	
276	59.229857850459	0.650634765625	27.4999999305692	-0.0284829642623663	
277	59.3298578502065	0.6512451171875	27.5999999303167	0.0274657160043716	
278	59.429857849954	0.65032958984375	27.6999999300642	-0.0279743392020464	
279	59.5298578497016	0.65032958984375	27.7999999298117	0.0127156088128686	
280	59.6298578494491	0.650634765625	27.8999999295593	0.00254312180913985	
281	59.7298578491966	0.6512451171875	27.9999999293068	0.00762936566025019	
282	59.8298578489441	0.6512451171875	28.0999999290543	-0.00610349234193563	
283	59.9298578486917	0.65155029296875	28.1999999288018	0.00762936566025019	
284	60.0298578484392	0.6500244140625	28.2999999285494	-0.0315347090363503	
285	60.1298578481867	0.6500244140625	28.3999999282969	0.0188191011548042	
286	60.2298578479342	0.64910888671875	28.4999999280444	-0.0218708477914333	
287	60.3298578476818	0.6488037109375	28.5999999277919	0.0050862436182797	
288	60.4298578474293	0.6494140625	28.6999999275395	0.0116983605548739	
289	60.5298578471768	0.650634765625	28.799999927287	0.0142414821311831	
290	60.6298578469243	0.650634765625	28.8999999270345	-0.0122069846838713	
291	60.7298578466718	0.65093994140625	28.999999926782	0.00966386310756207	
292	60.8298578464194	0.65093994140625	29.0999999265296	-0.00356037053279579	
293	60.9298578461669	0.65032958984375	29.1999999262771	-0.0101724872365594	
294	61.0298578459144	0.64971923828125	29.2999999260246	-0.00406899489462376	
295	61.1298578456619	0.6494140625	29.3999999257721	-0.00050862436182797	
296	61.2298578454095	0.6494140625	29.4999999255197	0.00152587308548391	
297	61.329857845157	0.6494140625	29.5999999252672	-0.00101724872365594	
298	61.4298578449045	0.64971923828125	29.6999999250147	0.00559486821293831	
299	61.529857844652	0.650634765625	29.7999999247622	0.0132242338731885	
300	61.6298578443996	0.650634765625	29.8999999245098	-0.00966386310756207	
301	61.7298578441471	0.65032958984375	29.9999999242573	-0.00254312180913985	
302	61.8298578438946	0.64971923828125	30.0999999240048	-0.00762936566025019	
303	61.9298578436421	0.6494140625	30.1999999237523	0.00050862436182797	
304	62.0298578433897	0.6500244140625	30.2999999234999	0.0127156088128686	
305	62.1298578431372	0.6494140625	30.3999999232474	-0.0193277262151241	
306	62.2298578428847	0.6500244140625	30.4999999229949	0.0203449744731188	
307	62.3298578426322	0.650634765625	30.5999999227424	0.00203449744731188	
308	62.4298578423798	0.65032958984375	30.69999992249	-0.0106811113655567	
309	62.5298578421273	0.6494140625	30.7999999222375	-0.0111897364258766	
310	62.6298578418748	0.6494140625	30.899999921985	0.00966386310756207	
311	62.7298578416223	0.6488037109375	30.9999999217325	-0.0142414821311831	
312	62.8298578413699	0.64910888671875	31.09999992148	0.0127156088128686	
313	62.9298578411174	0.6500244140625	31.1999999212276	0.0111897364258766	
314	63.0298578408649	0.6500244140625	31.2999999209751	-0.00966386310756207	
315	63.1298578406124	0.6512451171875	31.3999999207226	0.0254312176257372	
316	63.22985784036	0.6512451171875	31.4999999204701	-0.0142414821311831	
317	63.3298578401075	0.6500244140625	31.5999999202177	-0.0183104779571295	
318	63.429857839855	0.6494140625	31.6999999199652	0.00305174617096782	
319	63.5298578396025	0.6494140625	31.7999999197127	0.00305174617096782	
320	63.6298578393501	0.6500244140625	31.8999999194602	0.00915523897856474	
321	63.7298578390976	0.6494140625	31.9999999192078	-0.0183104779571295	
322	63.8298578388451	0.650634765625	32.0999999189553	0.0315347090363503	
323	63.9298578385926	0.6512451171875	32.1999999187028	-0.0050862436182797	
324	64.0298578383401	0.65093994140625	32.2999999184503	-0.00864661391824484	
325	64.1298578380877	0.65032958984375	32.3999999181979	-0.00559486821293831	
326	64.2298578378352	0.64971923828125	32.4999999179454	-0.0050862436182797	
327	64.3298578375827	0.65032958984375	32.5999999176929	0.016275979578495	
328	64.4298578373302	0.6500244140625	32.6999999174404	-0.0147501062601805	
329	64.5298578370778	0.64971923828125	32.799999917188	0	
330	64.6298578368253	0.650634765625	32.8999999169355	0.0193277262151241	
331	64.7298578365728	0.6512451171875	32.999999916683	-0.00050862436182797	
332	64.8298578363203	0.65093994140625	33.0999999164305	-0.00966386310756207	
333	64.9298578360679	0.65155029296875	33.1999999161781	0.0167846046388149	
334	65.0298578358154	0.650634765625	33.2999999159256	-0.0249225944280624	
335	65.1298578355629	0.65032958984375	33.3999999156731	0.00712074106559157	
336	65.2298578353104	0.65032958984375	33.4999999154206	0.00050862436182797	
337	65.329857835058	0.650634765625	33.5999999151682	0.00457761948928237	
338	65.4298578348055	0.650634765625	33.6999999149157	-0.00356037053279579	
339	65.529857834553	0.65216064453125	33.7999999146632	0.0289915893226862	
340	65.6298578343005	0.65185546875	33.8999999144107	-0.0233967211097479	
341	65.7298578340481	0.65216064453125	33.9999999141583	0.0142414821311831	
342	65.8298578337956	0.6512451171875	34.0999999139058	-0.0213622227311134	
343	65.9298578335431	0.6500244140625	34.1999999136533	-0.0106811113655567	
344	66.0298578332906	0.6500244140625	34.2999999134008	0.0111897364258766	
345	66.1298578330382	0.650634765625	34.3999999131483	0.00712074106559157	
346	66.2298578327857	0.650634765625	34.4999999128959	-0.00712074106559157	
347	66.3298578325332	0.6512451171875	34.5999999126434	0.0132242338731885	
348	66.4298578322807	0.65185546875	34.6999999123909	0.00406899489462376	
349	66.5298578320283	0.6512451171875	34.7999999121384	-0.016275979578495	
350	66.6298578317758	0.650634765625	34.899999911886	-0.00203449744731188	
351	66.7298578315233	0.650634765625	34.9999999116335	0.0050862436182797	
352	66.8298578312708	0.65032958984375	35.099999911381	-0.00762936566025019	
353	66.9298578310184	0.64971923828125	35.1999999111285	-0.00762936566025019	
354	67.0298578307659	0.65093994140625	35.2999999108761	0.0284829642623663	
355	67.1298578305134	0.6512451171875	35.3999999106236	-0.0106811113655567	
356	67.2298578302609	0.65155029296875	35.4999999103711	0.00610349234193563	
357	67.3298578300085	0.6524658203125	35.5999999101186	0.0142414821311831	
358	67.429857829756	0.65185546875	35.6999999098662	-0.0208535995334387	
359	67.5298578295035	0.65216064453125	35.7999999096137	0.0157673545181751	
360	67.629857829251	0.65155029296875	35.8999999093612	-0.0167846046388149	
361	67.7298578289985	0.65032958984375	35.9999999091087	-0.0142414821311831	
362	67.8298578287461	0.6512451171875	36.0999999088563	0.0289915893226862	
363	67.9298578284936	0.65093994140625	36.1999999086038	-0.0203449744731188	
364	68.0298578282411	0.6512451171875	36.2999999083513	0.0122069846838713	
365	68.1298578279886	0.65185546875	36.3999999080988	0.00661211693659425	
366	68.2298578277362	0.6512451171875	36.4999999078464	-0.0172932278364897	
367	68.3298578274837	0.65155029296875	36.5999999075939	0.0147501062601805	
368	68.4298578272312	0.65185546875	36.6999999073414	0	
369	68.5298578269787	0.65185546875	36.7999999070889	-0.00254312180913985	
370	68.6298578267263	0.6524658203125	36.8999999068365	0.0122069846838713	
371	68.7298578264738	0.6536865234375	36.999999906584	0.0152587313205004	
372	68.8298578262213	0.653076171875	37.0999999063315	-0.0233967211097479	
373	68.9298578259688	0.65338134765625	37.199999906079	0.0167846046388149	
374	69.0298578257164	0.65338134765625	37.2999999058266	-0.00559486821293831	
375	69.1298578254639	0.65338134765625	37.3999999055741	0.00101724872365594	
376	69.2298578252114	0.65338134765625	37.4999999053216	0	
377	69.3298578249589	0.65338134765625	37.5999999050691	0	
378	69.4298578247065	0.6536865234375	37.6999999048167	0.00559486821293831	
379	69.529857824454	0.65399169921875	37.7999999045642	0.00203449744731188	
380	69.6298578242015	0.65460205078125	37.8999999043117	0.00864661391824484	
381	69.729857823949	0.654296875	37.9999999040592	-0.0116983605548739	
382	69.8298578236966	0.654296875	38.0999999038067	0.00559486821293831	
383	69.9298578234441	0.6536865234375	38.1999999035543	-0.0122069846838713	
384	70.0298578231916	0.6536865234375	38.2999999033018	0.00712074106559157	
385	70.1298578229391	0.653076171875	38.3999999030493	-0.0132242338731885	
386	70.2298578226867	0.6536865234375	38.4999999027968	0.0183104779571295	
387	70.3298578224342	0.6536865234375	38.5999999025444	-0.00915523897856474	
388	70.4298578221817	0.65399169921875	38.6999999022919	0.00762936566025019	
389	70.5298578219292	0.6536865234375	38.7999999020394	-0.00915523897856474	
390	70.6298578216768	0.653076171875	38.8999999017869	-0.00661211693659425	
391	70.7298578214243	0.65338134765625	38.9999999015345	0.0116983605548739	
392	70.8298578211718	0.65216064453125	39.099999901282	-0.0279743392020464	
393	70.9298578209193	0.65216064453125	39.1999999010295	0.0152587313205004	
394	71.0298578206668	0.6524658203125	39.299999900777	0.00152587308548391	
395	71.1298578204144	0.65277099609375	39.3999999005246	0.00203449744731188	
396	71.2298578201619	0.653076171875	39.4999999002721	0.00305174617096782	
397	71.3298578199094	0.6536865234375	39.5999999000196	0.00864661391824484	
398	71.4298578196569	0.65399169921875	39.6999998997671	-0.00050862436182797	
399	71.5298578194045	0.654296875	39.7999998995147	0.00406899489462376	
400	71.629857819152	0.65399169921875	39.8999998992622	-0.00813798978924751	
401	71.7298578188995	0.6536865234375	39.9999998990097	-0.00101724872365594	
402	71.829857818647	0.65399169921875	40.0999998987572	0.00813798978924751	
403	71.9298578183946	0.6536865234375	40.1999998985048	-0.0101724872365594	
404	72.0298578181421	0.654296875	40.2999998982523	0.0157673545181751	
405	72.1298578178896	0.65460205078125	40.3999998979998	-0.00254312180913985	
406	72.2298578176371	0.65521240234375	40.4999998977473	0.00966386310756207	
407	72.3298578173847	0.655517578125	40.5999998974949	-0.00050862436182797	
408	72.4298578171322	0.65521240234375	40.6999998972424	-0.00712074106559157	
409	72.5298578168797	0.6549072265625	40.7999998969899	-0.00101724872365594	
410	72.6298578166272	0.65521240234375	40.8999998967374	0.00813798978924751	
411	72.7298578163748	0.654296875	40.999999896485	-0.0213622227311134	
412	72.8298578161223	0.6549072265625	41.0999998962325	0.022888096049428	
413	72.9298578158698	0.65521240234375	41.19999989598	-0.00457761948928237	
414	73.0298578156173	0.654296875	41.2999998957275	-0.0183104779571295	
415	73.1298578153649	0.65460205078125	41.399999895475	0.0172932278364897	
416	73.2298578151124	0.654296875	41.4999998952226	-0.0122069846838713	
417	73.3298578148599	0.65338134765625	41.5999998949701	-0.0122069846838713	
418	73.4298578146074	0.65216064453125	41.6999998947176	-0.0127156088128686	
419	73.529857814355	0.65185546875	41.7999998944651	0.00559486821293831	
420	73.6298578141025	0.65155029296875	41.8999998942127	-0.00610349234193563	
421	73.72985781385	0.65093994140625	41.9999998939602	-0.00864661391824484	
422	73.8298578135975	0.65093994140625	42.0999998937077	0.00610349234193563	
423	73.9298578133451	0.650634765625	42.1999998934552	-0.00762936566025019	
424	74.0298578130926	0.650634765625	42.2999998932028	0.00356037053279579	
425	74.1298578128401	0.650634765625	42.3999998929503	-0.00101724872365594	
426	74.2298578125876	0.65093994140625	42.4999998926978	0.00559486821293831	
427	74.3298578123351	0.65185546875	42.5999998924453	0.0132242338731885	
428	74.4298578120827	0.65185546875	42.6999998921929	-0.00966386310756207	
429	74.5298578118302	0.65185546875	42.7999998919404	0.00305174617096782	
430	74.6298578115777	0.65216064453125	42.8999998916879	0.00559486821293831	
431	74.7298578113252	0.6524658203125	42.9999998914354	0.00203449744731188	
432	74.8298578110728	0.653076171875	43.099999891183	0.00864661391824484	
433	74.9298578108203	0.6524658203125	43.1999998909305	-0.0172932278364897	
434	75.0298578105678	0.65277099609375	43.299999890678	0.0147501062601805	
435	75.1298578103153	0.65338134765625	43.3999998904255	0.00559486821293831	
436	75.2298578100629	0.65460205078125	43.4999998901731	0.016275979578495	
437	75.3298578098104	0.65582275390625	43.5999998899206	0.0101724872365594	
438	75.4298578095579	0.655517578125	43.6999998896681	-0.0157673545181751	
439	75.5298578093054	0.65521240234375	43.7999998894156	0.00203449744731188	
440	75.629857809053	0.655517578125	43.8999998891632	0.00813798978924751	
441	75.7298578088005	0.65521240234375	43.9999998889107	-0.0101724872365594	
442	75.829857808548	0.65521240234375	44.0999998886582	0.00457761948928237	
443	75.9298578082955	0.65521240234375	44.1999998884057	-0.00101724872365594	
444	76.0298578080431	0.65582275390625	44.2999998881533	0.0111897364258766	
445	76.1298578077906	0.65643310546875	44.3999998879008	0.00406899489462376	
446	76.2298578075381	0.6561279296875	44.4999998876483	-0.0106811113655567	
447	76.3298578072856	0.65582275390625	44.5999998873958	0	
448	76.4298578070332	0.65521240234375	44.6999998871433	-0.00864661391824484	
449	76.5298578067807	0.655517578125	44.7999998868909	0.0116983605548739	
450	76.6298578065282	0.654296875	44.8999998866384	-0.0279743392020464	
451	76.7298578062757	0.65399169921875	44.9999998863859	0.00966386310756207	
452	76.8298578060233	0.6549072265625	45.0999998861334	0.016275979578495	
453	76.9298578057708	0.655517578125	45.199999885881	-0.00050862436182797	
454	77.0298578055183	0.6561279296875	45.2999998856285	0.00712074106559157	
455	77.1298578052658	0.655517578125	45.399999885376	-0.016275979578495	
456	77.2298578050134	0.65521240234375	45.4999998851235	0.00356037053279579	
457	77.3298578047609	0.65521240234375	45.5999998848711	0.00152587308548391	
458	77.4298578045084	0.655517578125	45.6999998846186	0.00457761948928237	
459	77.5298578042559	0.655517578125	45.7999998843661	-0.00356037053279579	
460	77.6298578040034	0.6561279296875	45.8999998841136	0.0122069846838713	
461	77.729857803751	0.65673828125	45.9999998838612	0.00406899489462376	
462	77.8298578034985	0.6561279296875	46.0999998836087	-0.016275979578495	
463	77.929857803246	0.65582275390625	46.1999998833562	0.00356037053279579	
464	78.0298578029935	0.654296875	46.2999998831037	-0.026448467746377	
465	78.1298578027411	0.654296875	46.3999998828513	0.0167846046388149	
466	78.2298578024886	0.6549072265625	46.4999998825988	0.00610349234193563	
467	78.3298578022361	0.65399169921875	46.5999998823463	-0.0239053443074226	
468	78.4298578019836	0.654296875	46.6999998820938	0.0183104779571295	
469	78.5298578017312	0.65460205078125	46.7999998818414	-0.00101724872365594	
470	78.6298578014787	0.65521240234375	46.8999998815889	0.00864661391824484	
471	78.7298578012262	0.65521240234375	46.9999998813364	-0.00610349234193563	
472	78.8298578009737	0.6549072265625	47.0999998810839	-0.00356037053279579	
473	78.9298578007213	0.655517578125	47.1999998808315	0.0147501062601805	
474	79.0298578004688	0.655517578125	47.299999880579	-0.00813798978924751	
475	79.1298578002163	0.655517578125	47.3999998803265	0.00203449744731188	
476	79.2298577999638	0.65582275390625	47.499999880074	0.00559486821293831	
477	79.3298577997114	0.65643310546875	47.5999998798216	0.00762936566025019	
478	79.4298577994589	0.655517578125	47.6999998795691	-0.022888096049428	
479	79.5298577992064	0.6561279296875	47.7999998793166	0.0239053443074226	
480	79.6298577989539	0.65521240234375	47.8999998790641	-0.0269570909440517	
481	79.7298577987015	0.655517578125	47.9999998788116	0.0183104779571295	
482	79.829857798449	0.65460205078125	48.0999998785592	-0.0233967211097479	
483	79.9298577981965	0.654296875	48.1999998783067	0.00610349234193563	
484	80.029857797944	0.6549072265625	48.2999998780542	0.0116983605548739	
485	80.1298577976916	0.655517578125	48.3999998778017	0.00305174617096782	
486	80.2298577974391	0.6549072265625	48.4999998775493	-0.016275979578495	
487	80.3298577971866	0.655517578125	48.5999998772968	0.0203449744731188	
488	80.4298577969341	0.65460205078125	48.6999998770443	-0.0259398426860571	
489	80.5298577966817	0.65399169921875	48.7999998767918	0.00152587308548391	
490	80.6298577964292	0.6536865234375	48.8999998765394	-0.00152587308548391	
491	80.7298577961767	0.65460205078125	48.9999998762869	0.0183104779571295	
492	80.8298577959242	0.6549072265625	49.0999998760344	-0.00610349234193563	
493	80.9298577956718	0.655517578125	49.1999998757819	0.0106811113655567	
494	81.0298577954193	0.65643310546875	49.2999998755295	0.0106811113655567	
495	81.1298577951668	0.6561279296875	49.399999875277	-0.0142414821311831	
496	81.2298577949143	0.6561279296875	49.4999998750245	0.00661211693659425	
497	81.3298577946618	0.65582275390625	49.599999874772	-0.00661211693659425	
498	81.4298577944094	0.655517578125	49.6999998745196	-0.00203449744731188	
499	81.5298577941569	0.65521240234375	49.7999998742671	-0.00305174617096782	
500	81.6298577939044	0.655517578125	49.8999998740146	0.00813798978924751	
501	81.7298577936519	0.6549072265625	49.9999998737621	-0.0157673545181751	
502	81.8298577933995	0.65643310546875	50.0999998735097	0.0361123308539391	
503	81.929857793147	0.655517578125	50.1999998732572	-0.036620955914259	
504	82.0298577928945	0.65521240234375	50.2999998730047	0.0101724872365594	
505	82.129857792642	0.65399169921875	50.3999998727522	-0.0218708477914333	
506	82.2298577923896	0.654296875	50.4999998724998	0.0188191011548042	
507	82.3298577921371	0.65460205078125	50.5999998722473	-0.00203449744731188	
508	82.4298577918846	0.65521240234375	50.6999998719948	0.00864661391824484	
509	82.5298577916321	0.65582275390625	50.7999998717423	0.0050862436182797	
510	82.6298577913797	0.655517578125	50.8999998714899	-0.0106811113655567	
511	82.7298577911272	0.65521240234375	50.9999998712374	0	
512	82.8298577908747	0.6549072265625	51.0999998709849	-0.00305174617096782	
513	82.9298577906222	0.6549072265625	51.1999998707324	0.00254312180913985	
514	83.0298577903698	0.65399169921875	51.29999987048	-0.0178018528968096	
515	83.1298577901173	0.65399169921875	51.3999998702275	0.0106811113655567	
516	83.2298577898648	0.65521240234375	51.499999869975	0.0193277262151241	
517	83.3298577896123	0.65521240234375	51.5999998697225	-0.0142414821311831	
518	83.4298577893599	0.65582275390625	51.69999986947	0.0152587313205004	
519	83.5298577891074	0.65582275390625	51.7999998692176	-0.00712074106559157	
520	83.6298577888549	0.65582275390625	51.8999998689651	0.00203449744731188	
521	83.7298577886024	0.65582275390625	51.9999998687126	0	
522	83.82985778835	0.6549072265625	52.0999998684601	-0.0167846046388149	
523	83.9298577880975	0.6549072265625	52.1999998682077	0.0106811113655567	
524	84.029857787845	0.65460205078125	52.2999998679552	-0.00864661391824484	
525	84.1298577875925	0.654296875	52.3999998677027	-0.00203449744731188	
526	84.2298577873401	0.65521240234375	52.4999998674502	0.0193277262151241	
527	84.3298577870876	0.65460205078125	52.5999998671978	-0.022888096049428	
528	84.4298577868351	0.6536865234375	52.6999998669453	-0.00661211693659425	
529	84.5298577865826	0.6536865234375	52.7999998666928	0.00864661391824484	
530	84.6298577863301	0.6536865234375	52.8999998664403	-0.00305174617096782	
531	84.7298577860777	0.65399169921875	52.9999998661879	0.00559486821293831	
532	84.8298577858252	0.6549072265625	53.0999998659354	0.0132242338731885	
533	84.9298577855727	0.65521240234375	53.1999998656829	-0.00406899489462376	
534	85.0298577853202	0.65582275390625	53.2999998654304	0.0106811113655567	
535	85.1298577850678	0.6561279296875	53.399999865178	-0.00050862436182797	
536	85.2298577848153	0.6561279296875	53.4999998649255	-0.00152587308548391	
537	85.3298577845628	0.65460205078125	53.599999864673	-0.0269570909440517	
538	85.4298577843103	0.65521240234375	53.6999998644205	0.0289915893226862	
539	85.5298577840579	0.65521240234375	53.7999998641681	-0.0122069846838713	
540	85.6298577838054	0.65521240234375	53.8999998639156	0.00203449744731188	
541	85.7298577835529	0.655517578125	53.9999998636631	0.00559486821293831	
542	85.8298577833004	0.6561279296875	54.0999998634106	0.00762936566025019	
543	85.929857783048	0.6561279296875	54.1999998631582	-0.00610349234193563	
544	86.0298577827955	0.6561279296875	54.2999998629057	0.00203449744731188	
545	86.129857782543	0.6561279296875	54.3999998626532	0	
546	86.2298577822905	0.65582275390625	54.4999998624007	-0.00559486821293831	
547	86.3298577820381	0.6549072265625	54.5999998621483	-0.0132242338731885	
548	86.4298577817856	0.655517578125	54.6999998618958	0.0208535995334387	
549	86.5298577815331	0.65521240234375	54.7999998616433	-0.0157673545181751	
550	86.6298577812806	0.65582275390625	54.8999998613908	0.0167846046388149	
551	86.7298577810282	0.65643310546875	54.9999998611383	0.00305174617096782	
552	86.8298577807757	0.65582275390625	55.0999998608859	-0.016275979578495	
553	86.9298577805232	0.65521240234375	55.1999998606334	-0.00203449744731188	
554	87.0298577802707	0.6549072265625	55.2999998603809	-0.00050862436182797	
555	87.1298577800183	0.6549072265625	55.3999998601284	0.00152587308548391	
556	87.2298577797658	0.65460205078125	55.499999859876	-0.00661211693659425	
557	87.3298577795133	0.6549072265625	55.5999998596235	0.00915523897856474	
558	87.4298577792608	0.65521240234375	55.699999859371	0.00101724872365594	
559	87.5298577790084	0.65582275390625	55.7999998591185	0.00864661391824484	
560	87.6298577787559	0.6561279296875	55.8999998588661	-0.00050862436182797	
561	87.7298577785034	0.65582275390625	55.9999998586136	-0.00712074106559157	
562	87.8298577782509	0.65521240234375	56.0999998583611	-0.00661211693659425	
563	87.9298577779984	0.6536865234375	56.1999998581086	-0.0218708477914333	
564	88.029857777746	0.65338134765625	56.2999998578562	0.0101724872365594	
565	88.1298577774935	0.65399169921875	56.3999998576037	0.00966386310756207	
566	88.229857777241	0.654296875	56.4999998573512	-0.00254312180913985	
567	88.3298577769885	0.654296875	56.5999998570987	-0.00152587308548391	
568	88.4298577767361	0.65460205078125	56.6999998568463	0.00661211693659425	
569	88.5298577764836	0.65338134765625	56.7999998565938	-0.0259398426860571	
570	88.6298577762311	0.654296875	56.8999998563413	0.0320433340966702	
571	88.7298577759786	0.6536865234375	56.9999998560888	-0.0259398426860571	
572	88.8298577757262	0.654296875	57.0999998558364	0.0213622227311134	
573	88.9298577754737	0.6549072265625	57.1999998555839	0.00203449744731188	
574	89.0298577752212	0.655517578125	57.2999998553314	0.00610349234193563	
575	89.1298577749687	0.6561279296875	57.3999998550789	0.00610349234193563	
576	89.2298577747163	0.65673828125	57.4999998548265	0.00610349234193563	
577	89.3298577744638	0.6561279296875	57.599999854574	-0.016275979578495	
578	89.4298577742113	0.6561279296875	57.6999998543215	0.00915523897856474	
579	89.5298577739588	0.6549072265625	57.799999854069	-0.0244139693677425	
580	89.6298577737064	0.655517578125	57.8999998538166	0.0254312176257372	
581	89.7298577734539	0.65582275390625	57.9999998535641	-0.00559486821293831	
582	89.8298577732014	0.6561279296875	58.0999998533116	0.00406899489462376	
583	89.9298577729489	0.6561279296875	58.1999998530591	-0.00254312180913985	
584	90.0298577726965	0.65643310546875	58.2999998528066	0.00661211693659425	
585	90.129857772444	0.65643310546875	58.3999998525542	-0.00356037053279579	
586	90.2298577721915	0.655517578125	58.4999998523017	-0.0157673545181751	
587	90.329857771939	0.65521240234375	58.5999998520492	0.0050862436182797	
588	90.4298577716866	0.65399169921875	58.6999998517967	-0.0218708477914333	
589	90.5298577714341	0.65460205078125	58.7999998515443	0.0244139693677425	
590	90.6298577711816	0.65460205078125	58.8999998512918	-0.0111897364258766	
591	90.7298577709291	0.6536865234375	58.9999998510393	-0.0147501062601805	
592	90.8298577706767	0.654296875	59.0999998507868	0.0218708477914333	
593	90.9298577704242	0.654296875	59.1999998505344	-0.0101724872365594	
594	91.0298577701717	0.65338134765625	59.2999998502819	-0.0147501062601805	
595	91.1298577699192	0.653076171875	59.3999998500294	0.0050862436182797	
596	91.2298577696668	0.65277099609375	59.4999998497769	-0.0050862436182797	
597	91.3298577694143	0.65277099609375	59.5999998495245	0.00254312180913985	
598	91.4298577691618	0.6536865234375	59.699999849272	0.0157673545181751	
599	91.5298577689093	0.65460205078125	59.7999998490195	0.00610349234193563	
600	91.6298577686568	0.65460205078125	59.899999848767	-0.00762936566025019	
