Index	Potential applied (V)	Time (s)	WE(1).Current (A)	WE(1).Potential (V)
1	0.00244140625	147.19054162838	-0.00434478759765625	0.00263061523437499
2	0.0048828125	147.214941628318	-0.00439483642578125	0.0051239013671875
3	0.00732421875	147.239341628256	-0.0043597412109375	0.00755615234375
4	0.009765625	147.263741628195	-0.0043731689453125	0.009967041015625
5	0.01220703125	147.288141628133	-0.0043817138671875	0.01246337890625
6	0.0146484375	147.312541628072	-0.00434967041015625	0.0148345947265625
7	0.01708984375	147.33694162801	-0.00439788818359375	0.0173614501953125
8	0.01953125	147.361341627948	-0.0043365478515625	0.0197052001953125
9	0.02197265625	147.385741627887	-0.0044012451171875	0.022235107421875
10	0.0244140625	147.410141627825	-0.00433624267578125	0.0246063232421875
11	0.02685546875	147.434541627764	-0.004388427734375	0.0270843505859375
12	0.029296875	147.458941627702	-0.0043511962890625	0.0295074462890625
13	0.03173828125	147.48334162764	-0.00436767578125	0.031927490234375
14	0.0341796875	147.507741627579	-0.00437347412109375	0.0344207763671875
15	0.03662109375	147.532141627517	-0.00434356689453125	0.03681640625
16	0.0390625	147.556541627456	-0.00439056396484375	0.039337158203125
17	0.04150390625	147.580941627394	-0.004329833984375	0.0416748046875
18	0.0439453125	147.605341627332	-0.00439422607421875	0.04420166015625
19	0.04638671875	147.629741627271	-0.0043292236328125	0.04659423828125
20	0.048828125	147.654141627209	-0.00438262939453125	0.049713134765625
21	0.05126953125	147.678541627148	-0.00434600830078125	0.052154541015625
22	0.0537109375	147.702941627086	-0.00436187744140625	0.0545654296875
23	0.05615234375	147.727341627024	-0.0043682861328125	0.05706787109375
24	0.05859375	147.751741626963	-0.00433807373046875	0.05938720703125
25	0.06103515625	147.776141626901	-0.0043853759765625	0.061981201171875
26	0.0634765625	147.80054162684	-0.00432464599609375	0.064300537109375
27	0.06591796875	147.824941626778	-0.00439056396484375	0.06683349609375
28	0.068359375	147.849341626716	-0.00432525634765625	0.069183349609375
29	0.07080078125	147.873741626655	-0.0043792724609375	0.071624755859375
30	0.0732421875	147.898141626593	-0.0043402099609375	0.07415771484375
31	0.07568359375	147.922541626531	-0.00435791015625	0.076507568359375
32	0.078125	147.94694162647	-0.0043621826171875	0.079010009765625
33	0.08056640625	147.971341626408	-0.0043341064453125	0.08135986328125
34	0.0830078125	147.995741626347	-0.00437957763671875	0.08392333984375
35	0.08544921875	148.020141626285	-0.00431976318359375	0.08624267578125
36	0.087890625	148.044541626223	-0.0043853759765625	0.088775634765625
37	0.09033203125	148.068941626162	-0.00431915283203125	0.091156005859375
38	0.0927734375	148.0933416261	-0.004373779296875	0.09368896484375
39	0.09521484375	148.117741626039	-0.0043328857421875	0.0960693359375
40	0.09765625	148.142141625977	-0.0043524169921875	0.098480224609375
41	0.10009765625	148.166541625915	-0.00435455322265625	0.1009521484375
42	0.1025390625	148.190941625854	-0.00432861328125	0.10333251953125
43	0.10498046875	148.215341625792	-0.004373779296875	0.105865478515625
44	0.107421875	148.239741625731	-0.00431427001953125	0.108245849609375
45	0.10986328125	148.264141625669	-0.00437957763671875	0.110748291015625
46	0.1123046875	148.288541625607	-0.004312744140625	0.113189697265625
47	0.11474609375	148.312941625546	-0.0043695068359375	0.115570068359375
48	0.1171875	148.337341625484	-0.004327392578125	0.118072509765625
49	0.11962890625	148.361741625423	-0.00434906005859375	0.120452880859375
50	0.1220703125	148.386141625361	-0.00435028076171875	0.122894287109375
51	0.12451171875	148.410541625299	-0.00432586669921875	0.125335693359375
52	0.126953125	148.434941625238	-0.00436920166015625	0.12786865234375
53	0.12939453125	148.459341625176	-0.00431060791015625	0.130218505859375
54	0.1318359375	148.483741625115	-0.00437591552734375	0.13275146484375
55	0.13427734375	148.508141625053	-0.0043084716796875	0.13507080078125
56	0.13671875	148.532541624991	-0.0043658447265625	0.137542724609375
57	0.13916015625	148.55694162493	-0.004322509765625	0.140045166015625
58	0.1416015625	148.581341624868	-0.00434539794921875	0.142425537109375
59	0.14404296875	148.605741624807	-0.00434417724609375	0.1448974609375
60	0.146484375	148.630141624745	-0.0043212890625	0.147247314453125
61	0.14892578125	148.654541624683	-0.0043634033203125	0.14984130859375
62	0.1513671875	148.678941624622	-0.004305419921875	0.15216064453125
63	0.15380859375	148.70334162456	-0.0043701171875	0.1546630859375
64	0.15625	148.727741624499	-0.0043023681640625	0.15704345703125
65	0.15869140625	148.752141624437	-0.00436004638671875	0.1595458984375
66	0.1611328125	148.776541624375	-0.004315185546875	0.16192626953125
67	0.16357421875	148.800941624314	-0.00433990478515625	0.16436767578125
68	0.166015625	148.825341624252	-0.00433746337890625	0.1668701171875
69	0.16845703125	148.849741624191	-0.00431488037109375	0.169189453125
70	0.1708984375	148.874141624129	-0.00435638427734375	0.17181396484375
71	0.17333984375	148.898541624067	-0.00429901123046875	0.174102783203125
72	0.17578125	148.922941624006	-0.0043646240234375	0.1766357421875
73	0.17822265625	148.947341623944	-0.0042962646484375	0.178985595703125
74	0.1806640625	148.971741623883	-0.0043548583984375	0.1815185546875
75	0.18310546875	148.996141623821	-0.00430877685546875	0.183929443359375
76	0.185546875	149.020541623759	-0.00433502197265625	0.186370849609375
77	0.18798828125	149.044941623698	-0.00433074951171875	0.188873291015625
78	0.1904296875	149.069341623636	-0.00431060791015625	0.191131591796875
79	0.19287109375	149.093741623574	-0.0043505859375	0.193756103515625
80	0.1953125	149.118141623513	-0.0042938232421875	0.19610595703125
81	0.19775390625	149.142541623451	-0.00435882568359375	0.1986083984375
82	0.2001953125	149.16694162339	-0.004290771484375	0.200958251953125
83	0.20263671875	149.191341623328	-0.0043499755859375	0.203460693359375
84	0.205078125	149.215741623266	-0.0043023681640625	0.20587158203125
85	0.20751953125	149.240141623205	-0.00432952880859375	0.208343505859375
86	0.2099609375	149.264541623143	-0.00432342529296875	0.210784912109375
87	0.21240234375	149.288941623082	-0.00430450439453125	0.21319580078125
88	0.21484375	149.31334162302	-0.0043438720703125	0.215667724609375
89	0.21728515625	149.337741622958	-0.004287109375	0.21807861328125
90	0.2197265625	149.362141622897	-0.004351806640625	0.220611572265625
91	0.22216796875	149.386541622835	-0.00428192138671875	0.22296142578125
92	0.224609375	149.410941622774	-0.00434234619140625	0.22540283203125
93	0.22705078125	149.435341622712	-0.00429412841796875	0.227813720703125
94	0.2294921875	149.45974162265	-0.004322509765625	0.23028564453125
95	0.23193359375	149.484141622589	-0.00431640625	0.23272705078125
96	0.234375	149.508541622527	-0.00429840087890625	0.235107421875
97	0.23681640625	149.532941622466	-0.00433624267578125	0.237640380859375
98	0.2392578125	149.557341622404	-0.00428009033203125	0.240020751953125
99	0.24169921875	149.581741622342	-0.00434478759765625	0.242523193359375
100	0.244140625	149.606141622281	-0.00427520751953125	0.24481201171875
101	0.24658203125	149.630541622219	-0.00433685302734375	0.24737548828125
102	0.2490234375	149.654941622158	-0.0042877197265625	0.249786376953125
103	0.25146484375	149.679341622096	-0.00431732177734375	0.252227783203125
104	0.25390625	149.703741622034	-0.00430877685546875	0.25469970703125
105	0.25634765625	149.728141621973	-0.00429229736328125	0.257080078125
106	0.2587890625	149.752541621911	-0.00432891845703125	0.259613037109375
107	0.26123046875	149.77694162185	-0.004273681640625	0.261993408203125
108	0.263671875	149.801341621788	-0.00433807373046875	0.264495849609375
109	0.26611328125	149.825741621726	-0.00426849365234375	0.266876220703125
110	0.2685546875	149.850141621665	-0.0043304443359375	0.269317626953125
111	0.27099609375	149.874541621603	-0.00427886962890625	0.271759033203125
112	0.2734375	149.898941621542	-0.00431060791015625	0.274169921875
113	0.27587890625	149.92334162148	-0.0042999267578125	0.2767333984375
114	0.2783203125	149.947741621418	-0.00428497314453125	0.279052734375
115	0.28076171875	149.972141621357	-0.00432098388671875	0.2816162109375
116	0.283203125	149.996541621295	-0.0042669677734375	0.283935546875
117	0.28564453125	150.020941621234	-0.00433135986328125	0.286468505859375
118	0.2880859375	150.045341621172	-0.004261474609375	0.288848876953125
119	0.29052734375	150.06974162111	-0.00432525634765625	0.291290283203125
120	0.29296875	150.094141621049	-0.00427276611328125	0.293731689453125
121	0.29541015625	150.118541620987	-0.00430633544921875	0.296173095703125
122	0.2978515625	150.142941620926	-0.00429473876953125	0.298675537109375
123	0.30029296875	150.167341620864	-0.00428131103515625	0.301025390625
124	0.302734375	150.191741620802	-0.00431671142578125	0.30352783203125
125	0.30517578125	150.216141620741	-0.004263916015625	0.305938720703125
126	0.3076171875	150.240541620679	-0.0043280029296875	0.30841064453125
127	0.31005859375	150.264941620617	-0.0042572021484375	0.310821533203125
128	0.3125	150.289341620556	-0.00432037353515625	0.313232421875
129	0.31494140625	150.313741620494	-0.00426727294921875	0.315704345703125
130	0.3173828125	150.338141620433	-0.00430206298828125	0.318145751953125
131	0.31982421875	150.362541620371	-0.00428924560546875	0.32061767578125
132	0.322265625	150.386941620309	-0.00427703857421875	0.322998046875
133	0.32470703125	150.411341620248	-0.0043096923828125	0.32550048828125
134	0.3271484375	150.435741620186	-0.0042572021484375	0.327880859375
135	0.32958984375	150.460141620125	-0.00432037353515625	0.330413818359375
136	0.33203125	150.484541620063	-0.0042498779296875	0.332763671875
137	0.33447265625	150.508941620001	-0.00431427001953125	0.335205078125
138	0.3369140625	150.53334161994	-0.00425994873046875	0.337646484375
139	0.33935546875	150.557741619878	-0.004295654296875	0.340118408203125
140	0.341796875	150.582141619817	-0.00428070068359375	0.342559814453125
141	0.34423828125	150.606541619755	-0.00426971435546875	0.344940185546875
142	0.3466796875	150.630941619693	-0.0043011474609375	0.34747314453125
143	0.34912109375	150.655341619632	-0.00424957275390625	0.349761962890625
144	0.3515625	150.67974161957	-0.00431243896484375	0.352325439453125
145	0.35400390625	150.704141619509	-0.0042413330078125	0.354705810546875
146	0.3564453125	150.728541619447	-0.004306640625	0.357177734375
147	0.35888671875	150.752941619385	-0.00425079345703125	0.359649658203125
148	0.361328125	150.777341619324	-0.00428741455078125	0.362091064453125
149	0.36376953125	150.801741619262	-0.0042718505859375	0.364501953125
150	0.3662109375	150.826141619201	-0.004261474609375	0.366912841796875
151	0.36865234375	150.850541619139	-0.00429229736328125	0.369476318359375
152	0.37109375	150.874941619077	-0.0042413330078125	0.371795654296875
153	0.37353515625	150.899341619016	-0.00430511474609375	0.374298095703125
154	0.3759765625	150.923741618954	-0.0042340087890625	0.376678466796875
155	0.37841796875	150.948141618893	-0.00430023193359375	0.379150390625
156	0.380859375	150.972541618831	-0.0042431640625	0.381591796875
157	0.38330078125	150.996941618769	-0.0042816162109375	0.384033203125
158	0.3857421875	151.021341618708	-0.00426422119140625	0.38653564453125
159	0.38818359375	151.045741618646	-0.00425537109375	0.388885498046875
160	0.390625	151.070141618585	-0.0042852783203125	0.39141845703125
161	0.39306640625	151.094541618523	-0.0042352294921875	0.393768310546875
162	0.3955078125	151.118941618461	-0.004298095703125	0.39630126953125
163	0.39794921875	151.1433416184	-0.0042266845703125	0.398590087890625
164	0.400390625	151.167741618338	-0.0042919921875	0.401123046875
165	0.40283203125	151.192141618277	-0.00423431396484375	0.403594970703125
166	0.4052734375	151.216541618215	-0.004273681640625	0.405975341796875
167	0.40771484375	151.240941618153	-0.00425537109375	0.408416748046875
168	0.41015625	151.265341618092	-0.00424774169921875	0.410858154296875
169	0.41259765625	151.28974161803	-0.00427703857421875	0.41339111328125
170	0.4150390625	151.314141617969	-0.004227294921875	0.415740966796875
171	0.41748046875	151.338541617907	-0.00428985595703125	0.418304443359375
172	0.419921875	151.362941617845	-0.00421783447265625	0.420623779296875
173	0.42236328125	151.387341617784	-0.00428497314453125	0.423065185546875
174	0.4248046875	151.411741617722	-0.0042266845703125	0.425506591796875
175	0.42724609375	151.43614161766	-0.00426727294921875	0.427978515625
176	0.4296875	151.460541617599	-0.004248046875	0.430419921875
177	0.43212890625	151.484941617537	-0.00424224853515625	0.432769775390625
178	0.4345703125	151.509341617476	-0.00427093505859375	0.435333251953125
179	0.43701171875	151.533741617414	-0.0042218017578125	0.43768310546875
180	0.439453125	151.558141617352	-0.0042840576171875	0.44024658203125
181	0.44189453125	151.582541617291	-0.00421295166015625	0.44256591796875
182	0.4443359375	151.606941617229	-0.00427978515625	0.445098876953125
183	0.44677734375	151.631341617168	-0.0042205810546875	0.44744873046875
184	0.44921875	151.655741617106	-0.00426116943359375	0.44989013671875
185	0.45166015625	151.680141617044	-0.0042413330078125	0.452423095703125
186	0.4541015625	151.704541616983	-0.00423553466796875	0.454833984375
187	0.45654296875	151.728941616921	-0.00426300048828125	0.457275390625
188	0.458984375	151.75334161686	-0.00421417236328125	0.45965576171875
189	0.46142578125	151.777741616798	-0.00427703857421875	0.462158203125
190	0.4638671875	151.802141616736	-0.00420562744140625	0.4644775390625
191	0.46630859375	151.826541616675	-0.0042730712890625	0.467041015625
192	0.46875	151.850941616613	-0.0042138671875	0.469482421875
193	0.47119140625	151.875341616552	-0.00425537109375	0.47186279296875
194	0.4736328125	151.89974161649	-0.00423492431640625	0.474334716796875
195	0.47607421875	151.924141616428	-0.00422882080078125	0.476776123046875
196	0.478515625	151.948541616367	-0.00425689697265625	0.479248046875
197	0.48095703125	151.972941616305	-0.00420806884765625	0.481658935546875
198	0.4833984375	151.997341616244	-0.00427032470703125	0.484130859375
199	0.48583984375	152.021741616182	-0.0041973876953125	0.48651123046875
200	0.48828125	152.04614161612	-0.00426513671875	0.48895263671875
201	0.49072265625	152.070541616059	-0.00420501708984375	0.491424560546875
202	0.4931640625	152.094941615997	-0.0042462158203125	0.493896484375
203	0.49560546875	152.119341615936	-0.004224853515625	0.496337890625
204	0.498046875	152.143741615874	-0.0042193603515625	0.49871826171875
205	0.50048828125	152.168141615812	-0.004246826171875	0.501190185546875
206	0.5029296875	152.192541615751	-0.00419708251953125	0.503570556640625
207	0.50537109375	152.216941615689	-0.0042596435546875	0.506103515625
208	0.5078125	152.241341615628	-0.0041864013671875	0.5084228515625
209	0.51025390625	152.265741615566	-0.004254150390625	0.510955810546875
210	0.5126953125	152.290141615504	-0.00419342041015625	0.51336669921875
211	0.51513671875	152.314541615443	-0.00423492431640625	0.51580810546875
212	0.517578125	152.338941615381	-0.0042132568359375	0.51824951171875
213	0.52001953125	152.36334161532	-0.004207763671875	0.520660400390625
214	0.5224609375	152.387741615258	-0.004234619140625	0.523223876953125
215	0.52490234375	152.412141615196	-0.00418365478515625	0.525543212890625
216	0.52734375	152.436541615135	-0.0042462158203125	0.528076171875
217	0.52978515625	152.460941615073	-0.00417236328125	0.530426025390625
218	0.5322265625	152.485341615012	-0.00424102783203125	0.532928466796875
219	0.53466796875	152.50974161495	-0.0041802978515625	0.53533935546875
220	0.537109375	152.534141614888	-0.00422210693359375	0.53778076171875
221	0.53955078125	152.558541614827	-0.004200439453125	0.540191650390625
222	0.5419921875	152.582941614765	-0.00419464111328125	0.542633056640625
223	0.54443359375	152.607341614704	-0.00422119140625	0.545135498046875
224	0.546875	152.631741614642	-0.00417144775390625	0.547454833984375
225	0.54931640625	152.65614161458	-0.0042340087890625	0.550048828125
226	0.5517578125	152.680541614519	-0.00415985107421875	0.5523681640625
227	0.55419921875	152.704941614457	-0.00422821044921875	0.55487060546875
228	0.556640625	152.729341614395	-0.0041668701171875	0.557281494140625
229	0.55908203125	152.753741614334	-0.00420867919921875	0.559722900390625
230	0.5615234375	152.778141614272	-0.004185791015625	0.562255859375
231	0.56396484375	152.802541614211	-0.0041796875	0.5645751953125
232	0.56640625	152.826941614149	-0.00420684814453125	0.567108154296875
233	0.56884765625	152.851341614087	-0.004156494140625	0.5694580078125
234	0.5712890625	152.875741614026	-0.00421905517578125	0.571990966796875
235	0.57373046875	152.900141613964	-0.004144287109375	0.574371337890625
236	0.576171875	152.924541613903	-0.00421295166015625	0.5767822265625
237	0.57861328125	152.948941613841	-0.00415130615234375	0.57928466796875
238	0.5810546875	152.973341613779	-0.00419219970703125	0.581695556640625
239	0.58349609375	152.997741613718	-0.004169921875	0.5841064453125
240	0.5859375	153.022141613656	-0.00416351318359375	0.5865478515625
241	0.58837890625	153.046541613595	-0.0041912841796875	0.589111328125
242	0.5908203125	153.070941613533	-0.0041400146484375	0.591400146484375
243	0.59326171875	153.095341613471	-0.00420257568359375	0.593994140625
244	0.595703125	153.11974161341	-0.00412689208984375	0.5963134765625
245	0.59814453125	153.144141613348	-0.0041949462890625	0.598846435546875
246	0.6005859375	153.168541613287	-0.00413238525390625	0.601226806640625
247	0.60302734375	153.192941613225	-0.0041741943359375	0.6036376953125
248	0.60546875	153.217341613163	-0.00415130615234375	0.6060791015625
249	0.60791015625	153.241741613102	-0.00414398193359375	0.60845947265625
250	0.6103515625	153.26614161304	-0.004171142578125	0.6109619140625
251	0.61279296875	153.290541612979	-0.00411865234375	0.613372802734375
252	0.615234375	153.314941612917	-0.00418182373046875	0.615936279296875
253	0.61767578125	153.339341612855	-0.00410491943359375	0.61822509765625
254	0.6201171875	153.363741612794	-0.00417327880859375	0.6207275390625
255	0.62255859375	153.388141612732	-0.00411041259765625	0.623138427734375
256	0.625	153.412541612671	-0.00415130615234375	0.62554931640625
257	0.62744140625	153.436941612609	-0.00412811279296875	0.62811279296875
258	0.6298828125	153.461341612547	-0.00411895751953125	0.630401611328125
259	0.63232421875	153.485741612486	-0.0041473388671875	0.6329345703125
260	0.634765625	153.510141612424	-0.00409393310546875	0.635284423828125
261	0.63720703125	153.534541612363	-0.00415802001953125	0.637847900390625
262	0.6396484375	153.558941612301	-0.00408111572265625	0.6402587890625
263	0.64208984375	153.583341612239	-0.00414947509765625	0.6427001953125
264	0.64453125	153.607741612178	-0.00408599853515625	0.645111083984375
265	0.64697265625	153.632141612116	-0.00412689208984375	0.647552490234375
266	0.6494140625	153.656541612055	-0.0041033935546875	0.650054931640625
267	0.65185546875	153.680941611993	-0.00409393310546875	0.652435302734375
268	0.654296875	153.705341611931	-0.00412200927734375	0.6549072265625
269	0.65673828125	153.72974161187	-0.00406829833984375	0.65728759765625
270	0.6591796875	153.754141611808	-0.0041326904296875	0.6597900390625
271	0.66162109375	153.778541611747	-0.00405364990234375	0.662109375
272	0.6640625	153.802941611685	-0.004122314453125	0.66461181640625
273	0.66650390625	153.827341611623	-0.0040570068359375	0.6669921875
274	0.6689453125	153.851741611562	-0.0040972900390625	0.669525146484375
275	0.67138671875	153.8761416115	-0.0040740966796875	0.6719970703125
276	0.673828125	153.900541611438	-0.00406341552734375	0.674346923828125
277	0.67626953125	153.924941611377	-0.0040911865234375	0.67681884765625
278	0.6787109375	153.949341611315	-0.0040350341796875	0.67919921875
279	0.68115234375	153.973741611254	-0.00410003662109375	0.681732177734375
280	0.68359375	153.998141611192	-0.00401885986328125	0.68402099609375
281	0.68603515625	154.02254161113	-0.0040869140625	0.686614990234375
282	0.6884765625	154.046941611069	-0.0040203857421875	0.688995361328125
283	0.69091796875	154.071341611007	-0.0040606689453125	0.69146728515625
284	0.693359375	154.095741610946	-0.00403778076171875	0.693939208984375
285	0.69580078125	154.120141610884	-0.00402496337890625	0.69622802734375
286	0.6982421875	154.144541610822	-0.00405364990234375	0.698760986328125
287	0.70068359375	154.168941610761	-0.003995361328125	0.701171875
288	0.703125	154.193341610699	-0.00406036376953125	0.703704833984375
289	0.70556640625	154.217741610638	-0.00397674560546875	0.706024169921875
290	0.7080078125	154.242141610576	-0.004044189453125	0.70849609375
291	0.71044921875	154.266541610514	-0.00397674560546875	0.7109375
292	0.712890625	154.290941610453	-0.004014892578125	0.71337890625
293	0.71533203125	154.315341610391	-0.0039910888671875	0.71588134765625
294	0.7177734375	154.33974161033	-0.003975830078125	0.718231201171875
295	0.72021484375	154.364141610268	-0.0040045166015625	0.720703125
296	0.72265625	154.388541610206	-0.0039434814453125	0.723114013671875
297	0.72509765625	154.412941610145	-0.004007568359375	0.725616455078125
298	0.7275390625	154.437341610083	-0.0039215087890625	0.72796630859375
299	0.72998046875	154.461741610022	-0.00398895263671875	0.73046875
300	0.732421875	154.48614160996	-0.0039215087890625	0.732818603515625
301	0.73486328125	154.510541609898	-0.00395782470703125	0.735260009765625
302	0.7373046875	154.534941609837	-0.003934326171875	0.737823486328125
303	0.73974609375	154.559341609775	-0.00391510009765625	0.74017333984375
304	0.7421875	154.583741609714	-0.003944091796875	0.742706298828125
305	0.74462890625	154.608141609652	-0.00388153076171875	0.7449951171875
306	0.7470703125	154.63254160959	-0.00394561767578125	0.747589111328125
307	0.74951171875	154.656941609529	-0.00385772705078125	0.74920654296875
308	0.751953125	154.681341609467	-0.00392364501953125	0.75164794921875
309	0.75439453125	154.705741609406	-0.0038531494140625	0.75439453125
310	0.7568359375	154.730141609344	-0.00388885498046875	0.75592041015625
311	0.75927734375	154.754541609282	-0.0038616943359375	0.7586669921875
312	0.76171875	154.778941609221	-0.00384185791015625	0.7611083984375
313	0.76416015625	154.803341609159	-0.00386749267578125	0.76385498046875
314	0.7666015625	154.827741609098	-0.00380279541015625	0.765380859375
315	0.76904296875	154.852141609036	-0.00386474609375	0.7684326171875
316	0.771484375	154.876541608974	-0.00377471923828125	0.770263671875
317	0.77392578125	154.900941608913	-0.003837890625	0.77301025390625
318	0.7763671875	154.925341608851	-0.00376495361328125	0.7757568359375
319	0.77880859375	154.94974160879	-0.003797607421875	0.77789306640625
320	0.78125	154.974141608728	-0.00376861572265625	0.78094482421875
321	0.78369140625	154.998541608666	-0.0037451171875	0.78338623046875
322	0.7861328125	155.022941608605	-0.00376922607421875	0.78521728515625
323	0.78857421875	155.047341608543	-0.0037017822265625	0.7879638671875
324	0.791015625	155.071741608481	-0.0037615966796875	0.79010009765625
325	0.79345703125	155.09614160842	-0.00366729736328125	0.7928466796875
326	0.7958984375	155.120541608358	-0.003726806640625	0.79498291015625
327	0.79833984375	155.144941608297	-0.00365264892578125	0.797119140625
328	0.80078125	155.169341608235	-0.003680419921875	0.79986572265625
329	0.80322265625	155.193741608173	-0.00365020751953125	0.802001953125
330	0.8056640625	155.218141608112	-0.00361968994140625	0.804443359375
331	0.80810546875	155.24254160805	-0.003641357421875	0.80718994140625
332	0.810546875	155.266941607989	-0.0035687255859375	0.80963134765625
333	0.81298828125	155.291341607927	-0.00362396240234375	0.81207275390625
334	0.8154296875	155.315741607865	-0.00352630615234375	0.814208984375
335	0.81787109375	155.340141607804	-0.0035797119140625	0.81695556640625
336	0.8203125	155.364541607742	-0.0035040283203125	0.8197021484375
337	0.82275390625	155.388941607681	-0.00352630615234375	0.821533203125
338	0.8251953125	155.413341607619	-0.00349395751953125	0.8245849609375
339	0.82763671875	155.437741607557	-0.0034576416015625	0.8270263671875
340	0.830078125	155.462141607496	-0.003475341796875	0.82916259765625
341	0.83251953125	155.486541607434	-0.0034002685546875	0.83160400390625
342	0.8349609375	155.510941607373	-0.003450927734375	0.833740234375
343	0.83740234375	155.535341607311	-0.003350830078125	0.83648681640625
344	0.83984375	155.559741607249	-0.0033966064453125	0.838623046875
345	0.84228515625	155.584141607188	-0.00331878662109375	0.84136962890625
346	0.8447265625	155.608541607126	-0.003333740234375	0.84320068359375
347	0.84716796875	155.632941607065	-0.00329803466796875	0.84625244140625
348	0.849609375	155.657341607003	-0.00325347900390625	0.848388671875
349	0.85205078125	155.681741606941	-0.00326507568359375	0.850830078125
350	0.8544921875	155.70614160688	-0.00318603515625	0.853271484375
351	0.85693359375	155.730541606818	-0.00322784423828125	0.8563232421875
352	0.859375	155.754941606757	-0.003125	0.85845947265625
353	0.86181640625	155.779341606695	-0.0031585693359375	0.86151123046875
354	0.8642578125	155.803741606633	-0.00307891845703125	0.86334228515625
355	0.86669921875	155.828141606572	-0.0030828857421875	0.86578369140625
356	0.869140625	155.85254160651	-0.00304473876953125	0.8685302734375
357	0.87158203125	155.876941606449	-0.002991943359375	0.870361328125
358	0.8740234375	155.901341606387	-0.00299652099609375	0.87310791015625
359	0.87646484375	155.925741606325	-0.00291412353515625	0.8758544921875
360	0.87890625	155.950141606264	-0.00294586181640625	0.8782958984375
361	0.88134765625	155.974541606202	-0.00284149169921875	0.8807373046875
362	0.8837890625	155.998941606141	-0.002861328125	0.882568359375
363	0.88623046875	156.023341606079	-0.00278045654296875	0.885009765625
364	0.888671875	156.047741606017	-0.0027740478515625	0.887451171875
365	0.89111328125	156.072141605956	-0.0027313232421875	0.8905029296875
366	0.8935546875	156.096541605894	-0.00266998291015625	0.89263916015625
367	0.89599609375	156.120941605833	-0.00266571044921875	0.89508056640625
368	0.8984375	156.145341605771	-0.00257965087890625	0.89752197265625
369	0.90087890625	156.169741605709	-0.002598876953125	0.899658203125
370	0.9033203125	156.194141605648	-0.00249176025390625	0.90240478515625
371	0.90576171875	156.218541605586	-0.00249755859375	0.904541015625
372	0.908203125	156.242941605524	-0.00241455078125	0.9075927734375
373	0.91064453125	156.267341605463	-0.00239715576171875	0.90972900390625
374	0.9130859375	156.291741605401	-0.0023486328125	0.91217041015625
375	0.91552734375	156.31614160534	-0.00227752685546875	0.91461181640625
376	0.91796875	156.340541605278	-0.00226226806640625	0.91766357421875
377	0.92041015625	156.364941605216	-0.00217315673828125	0.91949462890625
378	0.9228515625	156.389341605155	-0.00217864990234375	0.92193603515625
379	0.92529296875	156.413741605093	-0.0020697021484375	0.92437744140625
380	0.927734375	156.438141605032	-0.0020599365234375	0.926513671875
381	0.93017578125	156.46254160497	-0.001973876953125	0.928955078125
382	0.9326171875	156.486941604908	-0.0019451904296875	0.931396484375
383	0.93505859375	156.511341604847	-0.001890869140625	0.93414306640625
384	0.9375	156.535741604785	-0.00180938720703125	0.93658447265625
385	0.93994140625	156.560141604724	-0.0017828369140625	0.9393310546875
386	0.9423828125	156.584541604662	-0.00169097900390625	0.941162109375
387	0.94482421875	156.6089416046	-0.00168182373046875	0.94390869140625
388	0.947265625	156.633341604539	-0.00157135009765625	0.94635009765625
389	0.94970703125	156.657741604477	-0.0015447998046875	0.94879150390625
390	0.9521484375	156.682141604416	-0.001456298828125	0.95123291015625
391	0.95458984375	156.706541604354	-0.0014154052734375	0.95367431640625
392	0.95703125	156.730941604292	-0.00135467529296875	0.95611572265625
393	0.95947265625	156.755341604231	-0.00126434326171875	0.958251953125
394	0.9619140625	156.779741604169	-0.0012255859375	0.96099853515625
395	0.96435546875	156.804141604108	-0.00113067626953125	0.96343994140625
396	0.966796875	156.828541604046	-0.00110809326171875	0.96649169921875
397	0.96923828125	156.852941603984	-0.00099578857421875	0.9686279296875
398	0.9716796875	156.877341603923	-0.00095367431640625	0.970458984375
399	0.97412109375	156.901741603861	-0.0008624267578125	0.972900390625
400	0.9765625	156.9261416038	-0.0008099365234375	0.97564697265625
401	0.97900390625	156.950541603738	-0.0007427978515625	0.97808837890625
402	0.9814453125	156.974941603676	-0.000643310546875	0.9808349609375
403	0.98388671875	156.999341603615	-0.00059326171875	0.9832763671875
404	0.986328125	157.023741603553	-0.00049713134765625	0.98541259765625
405	0.98876953125	157.048141603492	-0.0004593505859375	0.98785400390625
406	0.9912109375	157.07254160343	-0.000345184326171875	0.9906005859375
407	0.99365234375	157.096941603368	-0.00028662109375	0.9930419921875
408	0.99609375	157.121341603307	-0.00019146728515625	0.99578857421875
409	0.99853515625	157.145741603245	-0.000128143310546875	0.99761962890625
410	1.0009765625	157.170141603184	-5.3009033203125E-05	1.00006103515625
411	1.00341796875	157.194541603122	5.4443359375E-05	1.002197265625
412	1.005859375	157.21894160306	0.000116607666015625	1.0052490234375
413	1.00830078125	157.243341602999	0.000217010498046875	1.0076904296875
414	1.0107421875	157.267741602937	0.00026837158203125	1.009521484375
415	1.01318359375	157.292141602876	0.00038555908203125	1.01165771484375
416	1.015625	157.316541602814	0.000458953857421875	1.01470947265625
417	1.01806640625	157.340941602752	0.00055908203125	1.01654052734375
418	1.0205078125	157.365341602691	0.00063201904296875	1.01959228515625
419	1.02294921875	157.389741602629	0.00071533203125	1.021728515625
420	1.025390625	157.414141602567	0.0008306884765625	1.02447509765625
421	1.02783203125	157.438541602506	0.00090545654296875	1.02691650390625
422	1.0302734375	157.462941602444	0.001009521484375	1.02935791015625
423	1.03271484375	157.487341602383	0.001072998046875	1.0321044921875
424	1.03515625	157.511741602321	0.00119415283203125	1.03424072265625
425	1.03759765625	157.536141602259	0.0012799072265625	1.03668212890625
426	1.0400390625	157.560541602198	0.001385498046875	1.03912353515625
427	1.04248046875	157.584941602136	0.0014666748046875	1.04156494140625
428	1.044921875	157.609341602075	0.0015576171875	1.04400634765625
429	1.04736328125	157.633741602013	0.0016815185546875	1.04644775390625
430	1.0498046875	157.658141601951	0.00176788330078125	1.04888916015625
431	1.05224609375	157.68254160189	0.00187469482421875	1.05133056640625
432	1.0546875	157.706941601828	0.00195037841796875	1.0540771484375
433	1.05712890625	157.731341601767	0.0020751953125	1.055908203125
434	1.0595703125	157.755741601705	0.00217437744140625	1.05865478515625
435	1.06201171875	157.780141601643	0.0022857666015625	1.060791015625
436	1.064453125	157.804541601582	0.0023748779296875	1.06353759765625
437	1.06689453125	157.82894160152	0.00247406005859375	1.065673828125
438	1.0693359375	157.853341601459	0.00260528564453125	1.06842041015625
439	1.07177734375	157.877741601397	0.0027020263671875	1.0711669921875
440	1.07421875	157.902141601335	0.00281280517578125	1.07330322265625
441	1.07666015625	157.926541601274	0.00289947509765625	1.0760498046875
442	1.0791015625	157.950941601212	0.00302734375	1.077880859375
443	1.08154296875	157.975341601151	0.00313720703125	1.080322265625
444	1.083984375	157.999741601089	0.0032525634765625	1.082763671875
445	1.08642578125	158.024141601027	0.00334808349609375	1.08551025390625
446	1.0888671875	158.048541600966	0.00345306396484375	1.08795166015625
447	1.09130859375	158.072941600904	0.00358612060546875	1.0906982421875
448	1.09375	158.097341600843	0.003687744140625	1.092529296875
449	1.09619140625	158.121741600781	0.0037945556640625	1.094970703125
450	1.0986328125	158.146141600719	0.00388214111328125	1.097412109375
451	1.10107421875	158.170541600658	0.0039971923828125	1.10015869140625
452	1.103515625	158.194941600596	0.0040966796875	1.1029052734375
453	1.10595703125	158.219341600535	0.00419158935546875	1.10504150390625
454	1.1083984375	158.243741600473	0.0042669677734375	1.1077880859375
455	1.11083984375	158.268141600411	0.004344482421875	1.10992431640625
456	1.11328125	158.29254160035	0.00443450927734375	1.11236572265625
457	1.11572265625	158.316941600288	0.004501953125	1.11480712890625
458	1.1181640625	158.341341600227	0.00456512451171875	1.1175537109375
459	1.12060546875	158.365741600165	0.00461761474609375	1.11907958984375
460	1.123046875	158.390141600103	0.00468048095703125	1.1224365234375
461	1.12548828125	158.414541600042	0.004736328125	1.1248779296875
462	1.1279296875	158.43894159998	0.0047869873046875	1.1273193359375
463	1.13037109375	158.463341599919	0.00482818603515625	1.1297607421875
464	1.1328125	158.487741599857	0.00487091064453125	1.13189697265625
465	1.13525390625	158.512141599795	0.00492034912109375	1.1346435546875
466	1.1376953125	158.536541599734	0.00495941162109375	1.136474609375
467	1.14013671875	158.560941599672	0.0049957275390625	1.13861083984375
468	1.142578125	158.585341599611	0.0050274658203125	1.14166259765625
469	1.14501953125	158.609741599549	0.00506500244140625	1.14349365234375
470	1.1474609375	158.634141599487	0.00510040283203125	1.14654541015625
471	1.14990234375	158.658541599426	0.00513275146484375	1.148681640625
472	1.15234375	158.682941599364	0.00515960693359375	1.1517333984375
473	1.15478515625	158.707341599302	0.00518798828125	1.153564453125
474	1.1572265625	158.731741599241	0.00522125244140625	1.15631103515625
475	1.15966796875	158.756141599179	0.00524871826171875	1.158447265625
476	1.162109375	158.780541599118	0.00527374267578125	1.160888671875
477	1.16455078125	158.804941599056	0.00529693603515625	1.16363525390625
478	1.1669921875	158.829341598994	0.00532379150390625	1.16607666015625
479	1.16943359375	158.853741598933	0.00535003662109375	1.16851806640625
480	1.171875	158.878141598871	0.0053741455078125	1.170654296875
481	1.17431640625	158.90254159881	0.005394287109375	1.17340087890625
482	1.1767578125	158.926941598748	0.00541595458984375	1.17584228515625
483	1.17919921875	158.951341598686	0.0054412841796875	1.177978515625
484	1.181640625	158.975741598625	0.005462646484375	1.180419921875
485	1.18408203125	159.000141598563	0.005482177734375	1.1834716796875
486	1.1865234375	159.024541598502	0.00550048828125	1.185302734375
487	1.18896484375	159.04894159844	0.00552154541015625	1.18804931640625
488	1.19140625	159.073341598378	0.0055426025390625	1.18988037109375
489	1.19384765625	159.097741598317	0.00556182861328125	1.1932373046875
490	1.1962890625	159.122141598255	0.0055780029296875	1.195068359375
491	1.19873046875	159.146541598194	0.00559600830078125	1.197509765625
492	1.201171875	159.170941598132	0.005616455078125	1.2005615234375
493	1.19873046875	159.19534159807	0.00559783935546875	1.19720458984375
494	1.1962890625	159.219741598009	0.00557708740234375	1.19537353515625
495	1.19384765625	159.244141597947	0.00555572509765625	1.192626953125
496	1.19140625	159.268541597886	0.00553619384765625	1.19049072265625
497	1.18896484375	159.292941597824	0.00551727294921875	1.18804931640625
498	1.1865234375	159.317341597762	0.00549652099609375	1.1859130859375
499	1.18408203125	159.341741597701	0.005472412109375	1.18316650390625
500	1.181640625	159.366141597639	0.00544952392578125	1.18072509765625
501	1.17919921875	159.390541597578	0.0054302978515625	1.1773681640625
502	1.1767578125	159.414941597516	0.0054071044921875	1.17584228515625
503	1.17431640625	159.439341597454	0.00538238525390625	1.173095703125
504	1.171875	159.463741597393	0.005355224609375	1.17095947265625
505	1.16943359375	159.488141597331	0.00533111572265625	1.16851806640625
506	1.1669921875	159.51254159727	0.0053070068359375	1.165771484375
507	1.16455078125	159.536941597208	0.00528045654296875	1.163330078125
508	1.162109375	159.561341597146	0.0052496337890625	1.160888671875
509	1.15966796875	159.585741597085	0.00521942138671875	1.15875244140625
510	1.1572265625	159.610141597023	0.0051947021484375	1.15631103515625
511	1.15478515625	159.634541596962	0.00516326904296875	1.15325927734375
512	1.15234375	159.6589415969	0.005130615234375	1.15142822265625
513	1.14990234375	159.683341596838	0.00509307861328125	1.14898681640625
514	1.1474609375	159.707741596777	0.00506011962890625	1.146240234375
515	1.14501953125	159.732141596715	0.00502655029296875	1.14410400390625
516	1.142578125	159.756541596654	0.00498870849609375	1.141357421875
517	1.14013671875	159.780941596592	0.0049444580078125	1.138916015625
518	1.1376953125	159.80534159653	0.00489898681640625	1.136474609375
519	1.13525390625	159.829741596469	0.004862060546875	1.13433837890625
520	1.1328125	159.854141596407	0.00481353759765625	1.1322021484375
521	1.13037109375	159.878541596345	0.00476348876953125	1.12884521484375
522	1.1279296875	159.902941596284	0.00470184326171875	1.126708984375
523	1.12548828125	159.927341596222	0.00464752197265625	1.12457275390625
524	1.123046875	159.951741596161	0.0045904541015625	1.1224365234375
525	1.12060546875	159.976141596099	0.00452484130859375	1.11968994140625
526	1.1181640625	160.000541596037	0.0044464111328125	1.1175537109375
527	1.11572265625	160.024941595976	0.00436126708984375	1.114501953125
528	1.11328125	160.049341595914	0.00429473876953125	1.112060546875
529	1.11083984375	160.073741595853	0.004200439453125	1.109619140625
530	1.1083984375	160.098141595791	0.00410858154296875	1.10687255859375
531	1.10595703125	160.122541595729	0.00398956298828125	1.10504150390625
532	1.103515625	160.146941595668	0.0038909912109375	1.10260009765625
533	1.10107421875	160.171341595606	0.00378997802734375	1.10015869140625
534	1.0986328125	160.195741595545	0.0036773681640625	1.097412109375
535	1.09619140625	160.220141595483	0.0035540771484375	1.0955810546875
536	1.09375	160.244541595421	0.003424072265625	1.0931396484375
537	1.09130859375	160.26894159536	0.0033367919921875	1.09039306640625
538	1.0888671875	160.293341595298	0.00321044921875	1.0882568359375
539	1.08642578125	160.317741595237	0.0031036376953125	1.085205078125
540	1.083984375	160.342141595175	0.002965087890625	1.08306884765625
541	1.08154296875	160.366541595113	0.00286102294921875	1.08062744140625
542	1.0791015625	160.390941595052	0.00275634765625	1.077880859375
543	1.07666015625	160.41534159499	0.00264129638671875	1.07574462890625
544	1.07421875	160.439741594929	0.002523193359375	1.0736083984375
545	1.07177734375	160.464141594867	0.00239410400390625	1.07147216796875
546	1.0693359375	160.488541594805	0.00231536865234375	1.06842041015625
547	1.06689453125	160.512941594744	0.00219085693359375	1.06536865234375
548	1.064453125	160.537341594682	0.002095947265625	1.063232421875
549	1.06201171875	160.561741594621	0.0019635009765625	1.060791015625
550	1.0595703125	160.586141594559	0.00186767578125	1.058349609375
551	1.05712890625	160.610541594497	0.001771240234375	1.05621337890625
552	1.0546875	160.634941594436	0.0016632080078125	1.0540771484375
553	1.05224609375	160.659341594374	0.00155792236328125	1.05072021484375
554	1.0498046875	160.683741594313	0.00143310546875	1.04888916015625
555	1.04736328125	160.708141594251	0.0013671875	1.0467529296875
556	1.044921875	160.732541594189	0.00124725341796875	1.043701171875
557	1.04248046875	160.756941594128	0.0011663818359375	1.04156494140625
558	1.0400390625	160.781341594066	0.00104034423828125	1.03973388671875
559	1.03759765625	160.805741594005	0.00095428466796875	1.0369873046875
560	1.03515625	160.830141593943	0.0008673095703125	1.03424072265625
561	1.03271484375	160.854541593881	0.00076568603515625	1.03179931640625
562	1.0302734375	160.87894159382	0.00067535400390625	1.029052734375
563	1.02783203125	160.903341593758	0.00055511474609375	1.02691650390625
564	1.025390625	160.927741593697	0.000501708984375	1.02447509765625
565	1.02294921875	160.952141593635	0.00038665771484375	1.0223388671875
566	1.0205078125	160.976541593573	0.00031878662109375	1.01959228515625
567	1.01806640625	161.000941593512	0.00020086669921875	1.01715087890625
568	1.015625	161.02534159345	0.00012420654296875	1.014404296875
569	1.01318359375	161.049741593388	4.77294921875E-05	1.0125732421875
570	1.0107421875	161.074141593327	-4.7882080078125E-05	1.0101318359375
571	1.00830078125	161.098541593265	-0.00012237548828125	1.0076904296875
572	1.005859375	161.122941593204	-0.000238677978515625	1.0052490234375
573	1.00341796875	161.147341593142	-0.00027734375	1.002197265625
574	1.0009765625	161.17174159308	-0.000388458251953125	0.999755859375
575	0.99853515625	161.196141593019	-0.000441375732421875	0.9979248046875
576	0.99609375	161.220541592957	-0.000550537109375	0.9954833984375
577	0.99365234375	161.244941592896	-0.00061676025390625	0.9930419921875
578	0.9912109375	161.269341592834	-0.0006829833984375	0.989990234375
579	0.98876953125	161.293741592772	-0.00077239990234375	0.98785400390625
580	0.986328125	161.318141592711	-0.0008306884765625	0.98541259765625
581	0.98388671875	161.342541592649	-0.0009429931640625	0.98297119140625
582	0.9814453125	161.366941592588	-0.00096649169921875	0.98114013671875
583	0.97900390625	161.391341592526	-0.001075439453125	0.9783935546875
584	0.9765625	161.415741592464	-0.00111236572265625	0.97564697265625
585	0.97412109375	161.440141592403	-0.0012152099609375	0.97320556640625
586	0.9716796875	161.464541592341	-0.00127166748046875	0.97076416015625
587	0.96923828125	161.48894159228	-0.0013275146484375	0.9686279296875
588	0.966796875	161.513341592218	-0.00141204833984375	0.9661865234375
589	0.96435546875	161.537741592156	-0.0014532470703125	0.96343994140625
590	0.9619140625	161.562141592095	-0.0015631103515625	0.96099853515625
591	0.95947265625	161.586541592033	-0.00157073974609375	0.958251953125
592	0.95703125	161.610941591972	-0.0016754150390625	0.9564208984375
593	0.95458984375	161.63534159191	-0.00169830322265625	0.95367431640625
594	0.9521484375	161.659741591848	-0.00179168701171875	0.95123291015625
595	0.94970703125	161.684141591787	-0.00183929443359375	0.9490966796875
596	0.947265625	161.708541591725	-0.00188262939453125	0.946044921875
597	0.94482421875	161.732941591664	-0.00196258544921875	0.943603515625
598	0.9423828125	161.757341591602	-0.00198577880859375	0.9417724609375
599	0.93994140625	161.78174159154	-0.00209228515625	0.93902587890625
600	0.9375	161.806141591479	-0.00208404541015625	0.9368896484375
601	0.93505859375	161.830541591417	-0.00218536376953125	0.933837890625
602	0.9326171875	161.854941591356	-0.00219512939453125	0.931396484375
603	0.93017578125	161.879341591294	-0.00228057861328125	0.92926025390625
604	0.927734375	161.903741591232	-0.0023193359375	0.92681884765625
605	0.92529296875	161.928141591171	-0.00235076904296875	0.92376708984375
606	0.9228515625	161.952541591109	-0.00242645263671875	0.9222412109375
607	0.92041015625	161.976941591048	-0.00243316650390625	0.9197998046875
608	0.91796875	162.001341590986	-0.0025372314453125	0.91705322265625
609	0.91552734375	162.025741590924	-0.00251495361328125	0.914306640625
610	0.9130859375	162.050141590863	-0.00261199951171875	0.911865234375
611	0.91064453125	162.074541590801	-0.0026092529296875	0.90972900390625
612	0.908203125	162.09894159074	-0.002685546875	0.90728759765625
613	0.90576171875	162.123341590678	-0.00271728515625	0.90484619140625
614	0.9033203125	162.147741590616	-0.00273681640625	0.90240478515625
615	0.90087890625	162.172141590555	-0.00281036376953125	0.899658203125
616	0.8984375	162.196541590493	-0.00280059814453125	0.89752197265625
617	0.89599609375	162.220941590431	-0.0029022216796875	0.89508056640625
618	0.8935546875	162.24534159037	-0.0028668212890625	0.8929443359375
619	0.89111328125	162.269741590308	-0.00296112060546875	0.89080810546875
620	0.888671875	162.294141590247	-0.00294769287109375	0.887451171875
621	0.88623046875	162.318541590185	-0.00301361083984375	0.88531494140625
622	0.8837890625	162.342941590123	-0.003040771484375	0.882568359375
623	0.88134765625	162.367341590062	-0.0030487060546875	0.88043212890625
624	0.87890625	162.39174159	-0.00312042236328125	0.8782958984375
625	0.87646484375	162.416141589939	-0.00309600830078125	0.875244140625
626	0.8740234375	162.440541589877	-0.00319610595703125	0.872802734375
627	0.87158203125	162.464941589815	-0.00314910888671875	0.870361328125
628	0.869140625	162.489341589754	-0.00323944091796875	0.86822509765625
629	0.86669921875	162.513741589692	-0.0032177734375	0.8660888671875
630	0.8642578125	162.538141589631	-0.00327545166015625	0.8636474609375
631	0.86181640625	162.562541589569	-0.00329864501953125	0.86090087890625
632	0.859375	162.586941589507	-0.0032965087890625	0.859375
633	0.85693359375	162.611341589446	-0.00336669921875	0.85601806640625
634	0.8544921875	162.635741589384	-0.00332977294921875	0.85418701171875
635	0.85205078125	162.660141589323	-0.00342803955078125	0.85113525390625
636	0.849609375	162.684541589261	-0.0033721923828125	0.84869384765625
637	0.84716796875	162.708941589199	-0.003458251953125	0.8465576171875
638	0.8447265625	162.733341589138	-0.00343170166015625	0.84381103515625
639	0.84228515625	162.757741589076	-0.0034814453125	0.84136962890625
640	0.83984375	162.782141589015	-0.00350311279296875	0.83892822265625
641	0.83740234375	162.806541588953	-0.00349212646484375	0.83648681640625
642	0.8349609375	162.830941588891	-0.00356170654296875	0.833740234375
643	0.83251953125	162.85534158883	-0.003514404296875	0.83160400390625
644	0.830078125	162.879741588768	-0.00360931396484375	0.8294677734375
645	0.82763671875	162.904141588707	-0.00354827880859375	0.8270263671875
646	0.8251953125	162.928541588645	-0.00363037109375	0.823974609375
647	0.82275390625	162.952941588583	-0.0036004638671875	0.821533203125
648	0.8203125	162.977341588522	-0.00364288330078125	0.81939697265625
649	0.81787109375	163.00174158846	-0.003663330078125	0.81695556640625
650	0.8154296875	163.026141588399	-0.00364501953125	0.814208984375
651	0.81298828125	163.050541588337	-0.00371368408203125	0.81268310546875
652	0.810546875	163.074941588275	-0.00365997314453125	0.809326171875
653	0.80810546875	163.099341588214	-0.00375335693359375	0.80718994140625
654	0.8056640625	163.123741588152	-0.00368927001953125	0.804443359375
655	0.80322265625	163.148141588091	-0.00376617431640625	0.802001953125
656	0.80078125	163.172541588029	-0.0037359619140625	0.799560546875
657	0.79833984375	163.196941587967	-0.00376953125	0.7977294921875
658	0.7958984375	163.221341587906	-0.00379058837890625	0.79559326171875
659	0.79345703125	163.245741587844	-0.00376495361328125	0.792236328125
660	0.791015625	163.270141587783	-0.00383392333984375	0.79010009765625
661	0.78857421875	163.294541587721	-0.00377471923828125	0.7879638671875
662	0.7861328125	163.318941587659	-0.00386566162109375	0.78521728515625
663	0.78369140625	163.343341587598	-0.00379974365234375	0.7830810546875
664	0.78125	163.367741587536	-0.00387115478515625	0.7806396484375
665	0.77880859375	163.392141587474	-0.0038409423828125	0.7781982421875
666	0.7763671875	163.416541587413	-0.00386871337890625	0.7757568359375
667	0.77392578125	163.440941587351	-0.00389007568359375	0.7733154296875
668	0.771484375	163.46534158729	-0.00385955810546875	0.77117919921875
669	0.76904296875	163.489741587228	-0.0039288330078125	0.76873779296875
670	0.7666015625	163.514141587166	-0.00386566162109375	0.7659912109375
671	0.76416015625	163.538541587105	-0.00395355224609375	0.7635498046875
672	0.76171875	163.562941587043	-0.00388763427734375	0.7611083984375
673	0.75927734375	163.587341586982	-0.00395355224609375	0.758056640625
674	0.7568359375	163.61174158692	-0.00392425537109375	0.75653076171875
675	0.75439453125	163.636141586858	-0.00394500732421875	0.7537841796875
676	0.751953125	163.660541586797	-0.00396942138671875	0.750732421875
677	0.74951171875	163.684941586735	-0.003934326171875	0.7489013671875
678	0.7470703125	163.709341586674	-0.00400390625	0.74761962890625
679	0.74462890625	163.733741586612	-0.00393768310546875	0.74505615234375
680	0.7421875	163.75814158655	-0.00402191162109375	0.74273681640625
681	0.73974609375	163.782541586489	-0.0039569091796875	0.74017333984375
682	0.7373046875	163.806941586427	-0.00401763916015625	0.73773193359375
683	0.73486328125	163.831341586366	-0.00399261474609375	0.73529052734375
684	0.732421875	163.855741586304	-0.00400634765625	0.732879638671875
685	0.72998046875	163.880141586242	-0.00403411865234375	0.730560302734375
686	0.7275390625	163.904541586181	-0.00399261474609375	0.727996826171875
687	0.72509765625	163.928941586119	-0.0040625	0.72564697265625
688	0.72265625	163.953341586058	-0.003994140625	0.723114013671875
689	0.72021484375	163.977741585996	-0.00407562255859375	0.720672607421875
690	0.7177734375	164.002141585934	-0.004012451171875	0.718292236328125
691	0.71533203125	164.026541585873	-0.004068603515625	0.7158203125
692	0.712890625	164.050941585811	-0.00404632568359375	0.713409423828125
693	0.71044921875	164.07534158575	-0.00405426025390625	0.710906982421875
694	0.7080078125	164.099741585688	-0.00408416748046875	0.70855712890625
695	0.70556640625	164.124141585626	-0.0040399169921875	0.706024169921875
696	0.703125	164.148541585565	-0.00410980224609375	0.70367431640625
697	0.70068359375	164.172941585503	-0.00404083251953125	0.70111083984375
698	0.6982421875	164.197341585442	-0.00412078857421875	0.698822021484375
699	0.69580078125	164.22174158538	-0.00406005859375	0.69635009765625
700	0.693359375	164.246141585318	-0.00411224365234375	0.69390869140625
701	0.69091796875	164.270541585257	-0.0040924072265625	0.6915283203125
702	0.6884765625	164.294941585195	-0.0040966796875	0.68896484375
703	0.68603515625	164.319341585134	-0.004129638671875	0.686676025390625
704	0.68359375	164.343741585072	-0.00408233642578125	0.684051513671875
705	0.68115234375	164.36814158501	-0.00415252685546875	0.681793212890625
706	0.6787109375	164.392541584949	-0.00408355712890625	0.679290771484375
707	0.67626953125	164.416941584887	-0.00416107177734375	0.67681884765625
708	0.673828125	164.441341584826	-0.00410247802734375	0.674346923828125
709	0.67138671875	164.465741584764	-0.004149169921875	0.67193603515625
710	0.6689453125	164.490141584702	-0.0041326904296875	0.669525146484375
711	0.66650390625	164.514541584641	-0.00413238525390625	0.66705322265625
712	0.6640625	164.538941584579	-0.00416656494140625	0.66473388671875
713	0.66162109375	164.563341584518	-0.004117431640625	0.66217041015625
714	0.6591796875	164.587741584456	-0.00418701171875	0.659759521484375
715	0.65673828125	164.612141584394	-0.004117431640625	0.65728759765625
716	0.654296875	164.636541584333	-0.00419189453125	0.6549072265625
717	0.65185546875	164.660941584271	-0.0041351318359375	0.652435302734375
718	0.6494140625	164.685341584209	-0.00417877197265625	0.649993896484375
719	0.64697265625	164.709741584148	-0.00416351318359375	0.647613525390625
720	0.64453125	164.734141584086	-0.0041595458984375	0.645111083984375
721	0.64208984375	164.758541584025	-0.00419525146484375	0.64276123046875
722	0.6396484375	164.782941583963	-0.00414398193359375	0.640228271484375
723	0.63720703125	164.807341583901	-0.0042138671875	0.637908935546875
724	0.634765625	164.83174158384	-0.0041436767578125	0.63531494140625
725	0.63232421875	164.856141583778	-0.00421600341796875	0.6329345703125
726	0.6298828125	164.880541583717	-0.00416015625	0.630523681640625
727	0.62744140625	164.904941583655	-0.004200439453125	0.628021240234375
728	0.625	164.929341583593	-0.00418975830078125	0.625701904296875
729	0.62255859375	164.953741583532	-0.0041815185546875	0.623138427734375
730	0.6201171875	164.97814158347	-0.0042193603515625	0.620819091796875
731	0.61767578125	165.002541583409	-0.0041656494140625	0.618255615234375
732	0.615234375	165.026941583347	-0.00423492431640625	0.615936279296875
733	0.61279296875	165.051341583285	-0.00416534423828125	0.6134033203125
734	0.6103515625	165.075741583224	-0.00423492431640625	0.6109619140625
735	0.60791015625	165.100141583162	-0.0041815185546875	0.608551025390625
736	0.60546875	165.124541583101	-0.00421875	0.606109619140625
737	0.60302734375	165.148941583039	-0.004210205078125	0.60369873046875
738	0.6005859375	165.173341582977	-0.00419952392578125	0.6011962890625
739	0.59814453125	165.197741582916	-0.00423828125	0.598876953125
740	0.595703125	165.222141582854	-0.00418243408203125	0.5963134765625
741	0.59326171875	165.246541582793	-0.00425140380859375	0.593994140625
742	0.5908203125	165.270941582731	-0.00418304443359375	0.591461181640625
743	0.58837890625	165.295341582669	-0.00425048828125	0.588958740234375
744	0.5859375	165.319741582608	-0.00420013427734375	0.5865478515625
745	0.58349609375	165.344141582546	-0.0042340087890625	0.584075927734375
746	0.5810546875	165.368541582485	-0.0042279052734375	0.581695556640625
747	0.57861328125	165.392941582423	-0.00421356201171875	0.5792236328125
748	0.576171875	165.417341582361	-0.0042547607421875	0.576904296875
749	0.57373046875	165.4417415823	-0.00419830322265625	0.574371337890625
750	0.5712890625	165.466141582238	-0.0042681884765625	0.572021484375
751	0.56884765625	165.490541582177	-0.004200439453125	0.56951904296875
752	0.56640625	165.514941582115	-0.00426666259765625	0.567108154296875
753	0.56396484375	165.539341582053	-0.004217529296875	0.56463623046875
754	0.5615234375	165.563741581992	-0.004249267578125	0.5621337890625
755	0.55908203125	165.58814158193	-0.0042449951171875	0.55975341796875
756	0.556640625	165.612541581869	-0.00422821044921875	0.55731201171875
757	0.55419921875	165.636941581807	-0.004271240234375	0.554962158203125
758	0.5517578125	165.661341581745	-0.00421356201171875	0.552398681640625
759	0.54931640625	165.685741581684	-0.00428375244140625	0.550048828125
760	0.546875	165.710141581622	-0.0042156982421875	0.547515869140625
761	0.54443359375	165.734541581561	-0.0042803955078125	0.545135498046875
762	0.5419921875	165.758941581499	-0.0042333984375	0.542724609375
763	0.53955078125	165.783341581437	-0.0042626953125	0.540191650390625
764	0.537109375	165.807741581376	-0.00426025390625	0.53778076171875
765	0.53466796875	165.832141581314	-0.00424224853515625	0.535308837890625
766	0.5322265625	165.856541581252	-0.0042864990234375	0.532958984375
767	0.52978515625	165.880941581191	-0.004227294921875	0.530426025390625
768	0.52734375	165.905341581129	-0.00429718017578125	0.528045654296875
769	0.52490234375	165.929741581068	-0.0042291259765625	0.5255126953125
770	0.5224609375	165.954141581006	-0.00429229736328125	0.523162841796875
771	0.52001953125	165.978541580944	-0.004246826171875	0.52069091796875
772	0.517578125	166.002941580883	-0.004273681640625	0.51824951171875
773	0.51513671875	166.027341580821	-0.00427398681640625	0.515838623046875
774	0.5126953125	166.05174158076	-0.00425384521484375	0.5133056640625
775	0.51025390625	166.076141580698	-0.00429901123046875	0.51104736328125
776	0.5078125	166.100541580636	-0.0042388916015625	0.50848388671875
777	0.50537109375	166.124941580575	-0.004307861328125	0.506103515625
778	0.5029296875	166.149341580513	-0.00424102783203125	0.503662109375
779	0.50048828125	166.173741580452	-0.0043023681640625	0.501220703125
780	0.498046875	166.19814158039	-0.004259033203125	0.49871826171875
781	0.49560546875	166.222541580328	-0.004283447265625	0.49627685546875
782	0.4931640625	166.246941580267	-0.00428558349609375	0.49395751953125
783	0.49072265625	166.271341580205	-0.0042620849609375	0.491363525390625
784	0.48828125	166.295741580144	-0.00430877685546875	0.489013671875
785	0.48583984375	166.320141580082	-0.00424774169921875	0.486480712890625
786	0.4833984375	166.34454158002	-0.0043170166015625	0.484161376953125
787	0.48095703125	166.368941579959	-0.0042510986328125	0.48162841796875
788	0.478515625	166.393341579897	-0.0043109130859375	0.479217529296875
789	0.47607421875	166.417741579836	-0.0042694091796875	0.476776123046875
790	0.4736328125	166.442141579774	-0.00429107666015625	0.47430419921875
791	0.47119140625	166.466541579712	-0.00429473876953125	0.471954345703125
792	0.46875	166.490941579651	-0.00427001953125	0.469390869140625
793	0.46630859375	166.515341579589	-0.004317626953125	0.46710205078125
794	0.4638671875	166.539741579528	-0.00425628662109375	0.464569091796875
795	0.46142578125	166.564141579466	-0.00432525634765625	0.462188720703125
796	0.458984375	166.588541579404	-0.00425994873046875	0.459686279296875
797	0.45654296875	166.612941579343	-0.0043182373046875	0.457275390625
798	0.4541015625	166.637341579281	-0.0042779541015625	0.454803466796875
799	0.45166015625	166.66174157922	-0.00429779052734375	0.452392578125
800	0.44921875	166.686141579158	-0.0043035888671875	0.45001220703125
801	0.44677734375	166.710541579096	-0.00427734375	0.447479248046875
802	0.4443359375	166.734941579035	-0.00432647705078125	0.445098876953125
803	0.44189453125	166.759341578973	-0.00426422119140625	0.442596435546875
804	0.439453125	166.783741578912	-0.0043328857421875	0.440216064453125
805	0.43701171875	166.80814157885	-0.0042681884765625	0.437774658203125
806	0.4345703125	166.832541578788	-0.00432525634765625	0.435302734375
807	0.43212890625	166.856941578727	-0.0042864990234375	0.43292236328125
808	0.4296875	166.881341578665	-0.0043048095703125	0.430389404296875
809	0.42724609375	166.905741578604	-0.004312744140625	0.42803955078125
810	0.4248046875	166.930141578542	-0.0042852783203125	0.425506591796875
811	0.42236328125	166.95454157848	-0.0043353271484375	0.423126220703125
812	0.419921875	166.978941578419	-0.00427337646484375	0.42059326171875
813	0.41748046875	167.003341578357	-0.00434173583984375	0.41827392578125
814	0.4150390625	167.027741578295	-0.00427764892578125	0.415740966796875
815	0.41259765625	167.052141578234	-0.00433319091796875	0.41339111328125
816	0.41015625	167.076541578172	-0.004296875	0.41094970703125
817	0.40771484375	167.100941578111	-0.0043133544921875	0.408416748046875
818	0.4052734375	167.125341578049	-0.0043231201171875	0.40606689453125
819	0.40283203125	167.149741577987	-0.004293212890625	0.403564453125
820	0.400390625	167.174141577926	-0.0043438720703125	0.401153564453125
821	0.39794921875	167.198541577864	-0.004281005859375	0.398681640625
822	0.3955078125	167.222941577803	-0.0043487548828125	0.39630126953125
823	0.39306640625	167.247341577741	-0.0042852783203125	0.393829345703125
824	0.390625	167.271741577679	-0.00433990478515625	0.391387939453125
825	0.38818359375	167.296141577618	-0.00430450439453125	0.388946533203125
826	0.3857421875	167.320541577556	-0.0043194580078125	0.386474609375
827	0.38330078125	167.344941577495	-0.00433013916015625	0.384063720703125
828	0.380859375	167.369341577433	-0.0042987060546875	0.381561279296875
829	0.37841796875	167.393741577371	-0.00435028076171875	0.379180908203125
830	0.3759765625	167.41814157731	-0.00428680419921875	0.376708984375
831	0.37353515625	167.442541577248	-0.00435455322265625	0.37432861328125
832	0.37109375	167.466941577187	-0.0042919921875	0.371856689453125
833	0.36865234375	167.491341577125	-0.00434478759765625	0.369415283203125
834	0.3662109375	167.515741577063	-0.0043109130859375	0.36700439453125
835	0.36376953125	167.540141577002	-0.00432342529296875	0.364501953125
836	0.361328125	167.56454157694	-0.0043353271484375	0.36212158203125
837	0.35888671875	167.588941576879	-0.004302978515625	0.359588623046875
838	0.3564453125	167.613341576817	-0.0043548583984375	0.35723876953125
839	0.35400390625	167.637741576755	-0.0042901611328125	0.354766845703125
840	0.3515625	167.662141576694	-0.00435821533203125	0.3524169921875
841	0.34912109375	167.686541576632	-0.0042962646484375	0.34991455078125
842	0.3466796875	167.710941576571	-0.00434844970703125	0.347412109375
843	0.34423828125	167.735341576509	-0.00431640625	0.344970703125
844	0.341796875	167.759741576447	-0.0043267822265625	0.342498779296875
845	0.33935546875	167.784141576386	-0.00434112548828125	0.340179443359375
846	0.3369140625	167.808541576324	-0.0043072509765625	0.337646484375
847	0.33447265625	167.832941576263	-0.0043609619140625	0.33526611328125
848	0.33203125	167.857341576201	-0.004296875	0.332763671875
849	0.32958984375	167.881741576139	-0.00436492919921875	0.330413818359375
850	0.3271484375	167.906141576078	-0.004302978515625	0.32794189453125
851	0.32470703125	167.930541576016	-0.00435394287109375	0.325469970703125
852	0.322265625	167.954941575955	-0.00432281494140625	0.32305908203125
853	0.31982421875	167.979341575893	-0.004332275390625	0.32049560546875
854	0.3173828125	168.003741575831	-0.0043475341796875	0.318267822265625
855	0.31494140625	168.02814157577	-0.004312744140625	0.315673828125
856	0.3125	168.052541575708	-0.0043670654296875	0.313323974609375
857	0.31005859375	168.076941575647	-0.0043017578125	0.310821533203125
858	0.3076171875	168.101341575585	-0.00436920166015625	0.308502197265625
859	0.30517578125	168.125741575523	-0.0043084716796875	0.305938720703125
860	0.302734375	168.150141575462	-0.00435791015625	0.303497314453125
861	0.30029296875	168.1745415754	-0.00432861328125	0.301055908203125
862	0.2978515625	168.198941575338	-0.00433746337890625	0.298614501953125
863	0.29541015625	168.223341575277	-0.00435394287109375	0.2962646484375
864	0.29296875	168.247741575215	-0.00431793212890625	0.293670654296875
865	0.29052734375	168.272141575154	-0.00437225341796875	0.291290283203125
866	0.2880859375	168.296541575092	-0.00430755615234375	0.288818359375
867	0.28564453125	168.32094157503	-0.00437469482421875	0.2864990234375
868	0.283203125	168.345341574969	-0.00431427001953125	0.28399658203125
869	0.28076171875	168.369741574907	-0.00436279296875	0.28155517578125
870	0.2783203125	168.394141574846	-0.00433441162109375	0.279083251953125
871	0.27587890625	168.418541574784	-0.00434173583984375	0.276611328125
872	0.2734375	168.442941574722	-0.004359130859375	0.274261474609375
873	0.27099609375	168.467341574661	-0.0043218994140625	0.271728515625
874	0.2685546875	168.491741574599	-0.00437652587890625	0.269378662109375
875	0.26611328125	168.516141574538	-0.0043115234375	0.266845703125
876	0.263671875	168.540541574476	-0.00437774658203125	0.26446533203125
877	0.26123046875	168.564941574414	-0.0043182373046875	0.261993408203125
878	0.2587890625	168.589341574353	-0.0043658447265625	0.259552001953125
879	0.25634765625	168.613741574291	-0.00433746337890625	0.2572021484375
880	0.25390625	168.63814157423	-0.00434295654296875	0.25469970703125
881	0.25146484375	168.662541574168	-0.004361572265625	0.2523193359375
882	0.2490234375	168.686941574106	-0.00432342529296875	0.249755859375
883	0.24658203125	168.711341574045	-0.00437896728515625	0.24737548828125
884	0.244140625	168.735741573983	-0.00431396484375	0.244903564453125
885	0.24169921875	168.760141573922	-0.00438079833984375	0.2425537109375
886	0.2392578125	168.78454157386	-0.00432159423828125	0.24005126953125
887	0.23681640625	168.808941573798	-0.0043682861328125	0.237640380859375
888	0.234375	168.833341573737	-0.00434173583984375	0.235198974609375
889	0.23193359375	168.857741573675	-0.00434661865234375	0.232666015625
890	0.2294921875	168.882141573614	-0.0043658447265625	0.230316162109375
891	0.22705078125	168.906541573552	-0.00432769775390625	0.227813720703125
892	0.224609375	168.93094157349	-0.00438323974609375	0.22552490234375
893	0.22216796875	168.955341573429	-0.0043182373046875	0.222900390625
894	0.2197265625	168.979741573367	-0.00438446044921875	0.22052001953125
895	0.21728515625	169.004141573306	-0.0043255615234375	0.218048095703125
896	0.21484375	169.028541573244	-0.00437164306640625	0.215667724609375
897	0.21240234375	169.052941573182	-0.004345703125	0.2132568359375
898	0.2099609375	169.077341573121	-0.00435028076171875	0.21075439453125
899	0.20751953125	169.101741573059	-0.00437042236328125	0.2083740234375
900	0.205078125	169.126141572998	-0.0043310546875	0.205810546875
901	0.20263671875	169.150541572936	-0.00438720703125	0.203460693359375
902	0.2001953125	169.174941572874	-0.0043218994140625	0.20098876953125
903	0.19775390625	169.199341572813	-0.00438690185546875	0.198577880859375
904	0.1953125	169.223741572751	-0.00432891845703125	0.196136474609375
905	0.19287109375	169.24814157269	-0.004373779296875	0.19366455078125
906	0.1904296875	169.272541572628	-0.00434906005859375	0.19122314453125
907	0.18798828125	169.296941572566	-0.004351806640625	0.18878173828125
908	0.185546875	169.321341572505	-0.00437225341796875	0.1864013671875
909	0.18310546875	169.345741572443	-0.004332275390625	0.183837890625
910	0.1806640625	169.370141572381	-0.00438812255859375	0.1815185546875
911	0.17822265625	169.39454157232	-0.00432220458984375	0.17901611328125
912	0.17578125	169.418941572258	-0.00438812255859375	0.176605224609375
913	0.17333984375	169.443341572197	-0.0043304443359375	0.174163818359375
914	0.1708984375	169.467741572135	-0.00437530517578125	0.1717529296875
915	0.16845703125	169.492141572073	-0.00435089111328125	0.1693115234375
916	0.166015625	169.516541572012	-0.00435302734375	0.16680908203125
917	0.16357421875	169.54094157195	-0.0043743896484375	0.164459228515625
918	0.1611328125	169.565341571889	-0.00433380126953125	0.161865234375
919	0.15869140625	169.589741571827	-0.00439056396484375	0.159515380859375
920	0.15625	169.614141571765	-0.0043255615234375	0.157012939453125
921	0.15380859375	169.638541571704	-0.00439056396484375	0.154632568359375
922	0.1513671875	169.662941571642	-0.00433380126953125	0.152191162109375
923	0.14892578125	169.687341571581	-0.00437744140625	0.14971923828125
924	0.146484375	169.711741571519	-0.00435455322265625	0.1473388671875
925	0.14404296875	169.736141571457	-0.00435638427734375	0.14483642578125
926	0.1416015625	169.760541571396	-0.00437896728515625	0.1424560546875
927	0.13916015625	169.784941571334	-0.00433837890625	0.139984130859375
928	0.13671875	169.809341571273	-0.00439544677734375	0.137603759765625
929	0.13427734375	169.833741571211	-0.004329833984375	0.135101318359375
930	0.1318359375	169.858141571149	-0.0043951416015625	0.132720947265625
931	0.12939453125	169.882541571088	-0.00433837890625	0.1302490234375
932	0.126953125	169.906941571026	-0.00438140869140625	0.127777099609375
933	0.12451171875	169.931341570965	-0.00435882568359375	0.125396728515625
934	0.1220703125	169.955741570903	-0.004359130859375	0.12286376953125
935	0.11962890625	169.980141570841	-0.00438232421875	0.12054443359375
936	0.1171875	170.00454157078	-0.0043414306640625	0.11798095703125
937	0.11474609375	170.028941570718	-0.0043988037109375	0.1156005859375
938	0.1123046875	170.053341570657	-0.00433319091796875	0.1131591796875
939	0.10986328125	170.077741570595	-0.00439788818359375	0.110687255859375
940	0.107421875	170.102141570533	-0.00434173583984375	0.108306884765625
941	0.10498046875	170.126541570472	-0.004383544921875	0.105865478515625
942	0.1025390625	170.15094157041	-0.00436248779296875	0.103424072265625
943	0.10009765625	170.175341570349	-0.0043621826171875	0.100921630859375
944	0.09765625	170.199741570287	-0.004385986328125	0.098541259765625
945	0.09521484375	170.224141570225	-0.00434356689453125	0.096038818359375
946	0.0927734375	170.248541570164	-0.00440185546875	0.0936279296875
947	0.09033203125	170.272941570102	-0.0043359375	0.0911865234375
948	0.087890625	170.297341570041	-0.00440032958984375	0.088775634765625
949	0.08544921875	170.321741569979	-0.00434417724609375	0.08624267578125
950	0.0830078125	170.346141569917	-0.004385986328125	0.083892822265625
951	0.08056640625	170.370541569856	-0.0043658447265625	0.08148193359375
952	0.078125	170.394941569794	-0.004365234375	0.07891845703125
953	0.07568359375	170.419341569733	-0.00438934326171875	0.07659912109375
954	0.0732421875	170.443741569671	-0.0043463134765625	0.074005126953125
955	0.07080078125	170.468141569609	-0.004404296875	0.071746826171875
956	0.068359375	170.492541569548	-0.0043389892578125	0.0692138671875
957	0.06591796875	170.516941569486	-0.0044036865234375	0.066802978515625
958	0.0634765625	170.541341569425	-0.00434844970703125	0.064300537109375
959	0.06103515625	170.565741569363	-0.0043896484375	0.06195068359375
960	0.05859375	170.590141569301	-0.00436981201171875	0.059478759765625
961	0.05615234375	170.61454156924	-0.00436798095703125	0.0570068359375
962	0.0537109375	170.638941569178	-0.00439208984375	0.054656982421875
963	0.05126953125	170.663341569116	-0.00434967041015625	0.052093505859375
964	0.048828125	170.687741569055	-0.00440673828125	0.04974365234375
965	0.04638671875	170.712141568993	-0.0043414306640625	0.046588134765625
966	0.0439453125	170.736541568932	-0.0044061279296875	0.044195556640625
967	0.04150390625	170.76094156887	-0.0043499755859375	0.04169921875
968	0.0390625	170.785341568808	-0.00439208984375	0.039288330078125
969	0.03662109375	170.809741568747	-0.00437103271484375	0.0368560791015625
970	0.0341796875	170.834141568685	-0.00437103271484375	0.0343780517578125
971	0.03173828125	170.858541568624	-0.00439453125	0.0319854736328125
972	0.029296875	170.882941568562	-0.00435333251953125	0.029486083984375
973	0.02685546875	170.9073415685	-0.00441070556640625	0.027117919921875
974	0.0244140625	170.931741568439	-0.00434600830078125	0.0246124267578125
975	0.02197265625	170.956141568377	-0.00441070556640625	0.0222259521484375
976	0.01953125	170.980541568316	-0.0043548583984375	0.019732666015625
977	0.01708984375	171.004941568254	-0.0043951416015625	0.0173248291015625
978	0.0146484375	171.029341568192	-0.00437469482421875	0.01488037109375
979	0.01220703125	171.053741568131	-0.00437255859375	0.01240234375
980	0.009765625	171.078141568069	-0.0043975830078125	0.0099822998046875
981	0.00732421875	171.102541568008	-0.0043548583984375	0.007525634765625
982	0.0048828125	171.126941567946	-0.00441314697265625	0.005145263671875
983	0.00244140625	171.151341567884	-0.00434814453125	0.0026397705078125
984	0	171.175741567823	-0.00441162109375	0.000256347656250003
985	0.00244140625	171.200141567761	-0.0043548583984375	0.00264892578125001
986	0.0048828125	171.2245415677	-0.00439361572265625	0.00510559082031251
987	0.00732421875	171.248941567638	-0.00437255859375	0.007568359375
988	0.009765625	171.273341567576	-0.00436767578125	0.00995788574218751
989	0.01220703125	171.297741567515	-0.004390869140625	0.0124481201171875
990	0.0146484375	171.322141567453	-0.0043450927734375	0.0148406982421875
991	0.01708984375	171.346541567392	-0.00440185546875	0.017364501953125
992	0.01953125	171.37094156733	-0.00433441162109375	0.01971435546875
993	0.02197265625	171.395341567268	-0.00439727783203125	0.0222381591796875
