Index	Potential applied (V)	Time (s)	WE(1).Current (A)	WE(1).Potential (V)
1	0.00244140625	6.3889719838694	-0.004298095703125	0.00266418457031251
2	0.0048828125	6.41337198380779	-0.00431488037109375	0.00509033203125001
3	0.00732421875	6.43777198374619	-0.00431915283203125	0.00757751464843751
4	0.009765625	6.46217198368458	-0.00429046630859375	0.0099609375
5	0.01220703125	6.48657198362298	-0.00433685302734375	0.012481689453125
6	0.0146484375	6.51097198356138	-0.00427581787109375	0.0148345947265625
7	0.01708984375	6.53537198349977	-0.0043426513671875	0.0173614501953125
8	0.01953125	6.55977198343817	-0.00427337646484375	0.01971435546875
9	0.02197265625	6.58417198337656	-0.00433258056640625	0.0222198486328125
10	0.0244140625	6.60857198331496	-0.004285888671875	0.024615478515625
11	0.02685546875	6.63297198325336	-0.0043121337890625	0.0270660400390625
12	0.029296875	6.65737198319175	-0.0043072509765625	0.029522705078125
13	0.03173828125	6.68177198313015	-0.00428863525390625	0.031915283203125
14	0.0341796875	6.70617198306854	-0.004327392578125	0.034442138671875
15	0.03662109375	6.73057198300694	-0.00427154541015625	0.0367828369140625
16	0.0390625	6.75497198294534	-0.0043365478515625	0.0393157958984375
17	0.04150390625	6.77937198288373	-0.00426605224609375	0.0416900634765625
18	0.0439453125	6.80377198282213	-0.00432952880859375	0.0441925048828125
19	0.04638671875	6.82817198276052	-0.00427642822265625	0.0465911865234375
20	0.048828125	6.85257198269892	-0.0043109130859375	0.049652099609375
21	0.05126953125	6.87697198263731	-0.004298095703125	0.052154541015625
22	0.0537109375	6.90137198257571	-0.0042877197265625	0.054473876953125
23	0.05615234375	6.92577198251411	-0.0043194580078125	0.057037353515625
24	0.05859375	6.9501719824525	-0.0042681884765625	0.059417724609375
25	0.06103515625	6.9745719823909	-0.00433074951171875	0.061920166015625
26	0.0634765625	6.99897198232929	-0.0042608642578125	0.06427001953125
27	0.06591796875	7.02337198226769	-0.004327392578125	0.066802978515625
28	0.068359375	7.04777198220609	-0.00426910400390625	0.069091796875
29	0.07080078125	7.07217198214448	-0.0043121337890625	0.071624755859375
30	0.0732421875	7.09657198208288	-0.00428955078125	0.074127197265625
31	0.07568359375	7.12097198202127	-0.00428924560546875	0.07647705078125
32	0.078125	7.14537198195967	-0.00431182861328125	0.07891845703125
33	0.08056640625	7.16977198189807	-0.00426910400390625	0.081329345703125
34	0.0830078125	7.19417198183646	-0.00432769775390625	0.0838623046875
35	0.08544921875	7.21857198177486	-0.0042596435546875	0.086273193359375
36	0.087890625	7.24297198171325	-0.0043280029296875	0.088775634765625
37	0.09033203125	7.26737198165165	-0.0042645263671875	0.091156005859375
38	0.0927734375	7.29177198159005	-0.00431396484375	0.09356689453125
39	0.09521484375	7.31617198152844	-0.00428192138671875	0.09600830078125
40	0.09765625	7.34057198146684	-0.004290771484375	0.09844970703125
41	0.10009765625	7.36497198140523	-0.0043035888671875	0.100982666015625
42	0.1025390625	7.38937198134363	-0.00426971435546875	0.103363037109375
43	0.10498046875	7.41377198128203	-0.00432098388671875	0.105865478515625
44	0.107421875	7.43817198122042	-0.00425506591796875	0.108245849609375
45	0.10986328125	7.46257198115882	-0.00432342529296875	0.110748291015625
46	0.1123046875	7.48697198109721	-0.00425628662109375	0.1131591796875
47	0.11474609375	7.51137198103561	-0.00431304931640625	0.115631103515625
48	0.1171875	7.535771980974	-0.00427154541015625	0.1180419921875
49	0.11962890625	7.5601719809124	-0.00429229736328125	0.120452880859375
50	0.1220703125	7.5845719808508	-0.0042938232421875	0.122955322265625
51	0.12451171875	7.60897198078919	-0.0042694091796875	0.125213623046875
52	0.126953125	7.63337198072759	-0.004312744140625	0.1278076171875
53	0.12939453125	7.65777198066598	-0.0042523193359375	0.130157470703125
54	0.1318359375	7.68217198060438	-0.00431976318359375	0.13275146484375
55	0.13427734375	7.70657198054278	-0.00425048828125	0.135101318359375
56	0.13671875	7.73097198048117	-0.004312744140625	0.137542724609375
57	0.13916015625	7.75537198041957	-0.00426300048828125	0.1400146484375
58	0.1416015625	7.77977198035796	-0.00429290771484375	0.142425537109375
59	0.14404296875	7.80417198029636	-0.00428375244140625	0.1448974609375
60	0.146484375	7.82857198023476	-0.0042706298828125	0.147247314453125
61	0.14892578125	7.85297198017315	-0.004305419921875	0.149810791015625
62	0.1513671875	7.87737198011155	-0.00425079345703125	0.152130126953125
63	0.15380859375	7.90177198004994	-0.0043157958984375	0.154693603515625
64	0.15625	7.92617197998834	-0.00424560546875	0.15704345703125
65	0.15869140625	7.95057197992674	-0.0043115234375	0.159515380859375
66	0.1611328125	7.97497197986513	-0.00425445556640625	0.161895751953125
67	0.16357421875	7.99937197980353	-0.00429443359375	0.1644287109375
68	0.166015625	8.02377197974192	-0.00427459716796875	0.166839599609375
69	0.16845703125	8.04817197968032	-0.0042718505859375	0.169189453125
70	0.1708984375	8.07257197961871	-0.0042974853515625	0.17181396484375
71	0.17333984375	8.09697197955711	-0.00425048828125	0.17413330078125
72	0.17578125	8.12137197949551	-0.00430999755859375	0.1766357421875
73	0.17822265625	8.1457719794339	-0.00424163818359375	0.17901611328125
74	0.1806640625	8.1701719793723	-0.00431060791015625	0.1815185546875
75	0.18310546875	8.19457197931069	-0.00424774169921875	0.183929443359375
76	0.185546875	8.21897197924909	-0.0042962646484375	0.186309814453125
77	0.18798828125	8.24337197918749	-0.00426666259765625	0.188812255859375
78	0.1904296875	8.26777197912588	-0.00427459716796875	0.191192626953125
79	0.19287109375	8.29217197906428	-0.00428955078125	0.193695068359375
80	0.1953125	8.31657197900267	-0.0042523193359375	0.196044921875
81	0.19775390625	8.34097197894107	-0.004305419921875	0.198638916015625
82	0.2001953125	8.36537197887947	-0.004239501953125	0.200897216796875
83	0.20263671875	8.38977197881786	-0.00430908203125	0.203460693359375
84	0.205078125	8.41417197875626	-0.00424102783203125	0.205810546875
85	0.20751953125	8.43857197869465	-0.00429718017578125	0.208282470703125
86	0.2099609375	8.46297197863305	-0.0042572021484375	0.210693359375
87	0.21240234375	8.48737197857145	-0.004276123046875	0.213165283203125
88	0.21484375	8.51177197850984	-0.00427978515625	0.2156982421875
89	0.21728515625	8.53617197844824	-0.00425201416015625	0.217987060546875
90	0.2197265625	8.56057197838663	-0.004298095703125	0.220550537109375
91	0.22216796875	8.58497197832503	-0.004237060546875	0.222869873046875
92	0.224609375	8.60937197826343	-0.00430511474609375	0.225494384765625
93	0.22705078125	8.63377197820182	-0.004234619140625	0.227813720703125
94	0.2294921875	8.65817197814022	-0.00429595947265625	0.230255126953125
95	0.23193359375	8.68257197807861	-0.00424713134765625	0.23272705078125
96	0.234375	8.70697197801701	-0.004276123046875	0.235137939453125
97	0.23681640625	8.7313719779554	-0.00426849365234375	0.237640380859375
98	0.2392578125	8.7557719778938	-0.00425140380859375	0.24005126953125
99	0.24169921875	8.7801719778322	-0.00428924560546875	0.24249267578125
100	0.244140625	8.80457197777059	-0.00423431396484375	0.244873046875
101	0.24658203125	8.82897197770899	-0.00429962158203125	0.247406005859375
102	0.2490234375	8.85337197764738	-0.0042279052734375	0.249755859375
103	0.25146484375	8.87777197758578	-0.00429412841796875	0.252288818359375
104	0.25390625	8.90217197752418	-0.00423736572265625	0.254669189453125
105	0.25634765625	8.92657197746257	-0.0042767333984375	0.257110595703125
106	0.2587890625	8.95097197740097	-0.004259033203125	0.25958251953125
107	0.26123046875	8.97537197733936	-0.0042529296875	0.261962890625
108	0.263671875	8.99977197727776	-0.00428009033203125	0.26446533203125
109	0.26611328125	9.02417197721616	-0.00423309326171875	0.266815185546875
110	0.2685546875	9.04857197715455	-0.0042938232421875	0.26934814453125
111	0.27099609375	9.07297197709295	-0.00422332763671875	0.271728515625
112	0.2734375	9.09737197703134	-0.00429168701171875	0.274200439453125
113	0.27587890625	9.12177197696974	-0.00422943115234375	0.27655029296875
114	0.2783203125	9.14617197690814	-0.00427734375	0.279052734375
115	0.28076171875	9.17057197684653	-0.004248046875	0.28155517578125
116	0.283203125	9.19497197678493	-0.0042535400390625	0.283935546875
117	0.28564453125	9.21937197672332	-0.00427001953125	0.2864990234375
118	0.2880859375	9.24377197666172	-0.00423187255859375	0.288787841796875
119	0.29052734375	9.26817197660012	-0.00428619384765625	0.291290283203125
120	0.29296875	9.29257197653851	-0.00421875	0.293701171875
121	0.29541015625	9.31697197647691	-0.004288330078125	0.296173095703125
122	0.2978515625	9.3413719764153	-0.00422088623046875	0.298614501953125
123	0.30029296875	9.3657719763537	-0.004276123046875	0.30096435546875
124	0.302734375	9.39017197629209	-0.00423736572265625	0.303466796875
125	0.30517578125	9.41457197623049	-0.00425445556640625	0.305908203125
126	0.3076171875	9.43897197616889	-0.00425933837890625	0.30841064453125
127	0.31005859375	9.46337197610728	-0.00423187255859375	0.310760498046875
128	0.3125	9.48777197604568	-0.00427947998046875	0.31329345703125
129	0.31494140625	9.51217197598407	-0.0042156982421875	0.315643310546875
130	0.3173828125	9.53657197592247	-0.00428558349609375	0.3182373046875
131	0.31982421875	9.56097197586087	-0.00421478271484375	0.32049560546875
132	0.322265625	9.58537197579926	-0.0042767333984375	0.323028564453125
133	0.32470703125	9.60977197573766	-0.00422760009765625	0.325439453125
134	0.3271484375	9.63417197567605	-0.00425537109375	0.327880859375
135	0.32958984375	9.65857197561445	-0.004249267578125	0.33038330078125
136	0.33203125	9.68297197555285	-0.004232177734375	0.33270263671875
137	0.33447265625	9.70737197549124	-0.0042706298828125	0.335235595703125
138	0.3369140625	9.73177197542964	-0.0042132568359375	0.337615966796875
139	0.33935546875	9.75617197536803	-0.00427978515625	0.340179443359375
140	0.341796875	9.78057197530643	-0.00420867919921875	0.342498779296875
141	0.34423828125	9.80497197524483	-0.00427520751953125	0.344970703125
142	0.3466796875	9.82937197518322	-0.00421875	0.347412109375
143	0.34912109375	9.85377197512162	-0.0042572021484375	0.34979248046875
144	0.3515625	9.87817197506001	-0.00423919677734375	0.352294921875
145	0.35400390625	9.90257197499841	-0.0042340087890625	0.354736328125
146	0.3564453125	9.92697197493681	-0.004261474609375	0.3572998046875
147	0.35888671875	9.9513719748752	-0.00421234130859375	0.359588623046875
148	0.361328125	9.9757719748136	-0.00427398681640625	0.362152099609375
149	0.36376953125	10.000171974752	-0.00420440673828125	0.364410400390625
150	0.3662109375	10.0245719746904	-0.004273681640625	0.366973876953125
151	0.36865234375	10.0489719746288	-0.00420928955078125	0.369354248046875
152	0.37109375	10.0733719745672	-0.00425689697265625	0.371826171875
153	0.37353515625	10.0977719745056	-0.00422760009765625	0.374298095703125
154	0.3759765625	10.122171974444	-0.0042340087890625	0.376678466796875
155	0.37841796875	10.1465719743824	-0.00425048828125	0.379241943359375
156	0.380859375	10.1709719743208	-0.00421051025390625	0.38153076171875
157	0.38330078125	10.1953719742592	-0.004266357421875	0.38409423828125
158	0.3857421875	10.2197719741976	-0.00419921875	0.38641357421875
159	0.38818359375	10.244171974136	-0.00427001953125	0.389007568359375
160	0.390625	10.2685719740743	-0.00420135498046875	0.391326904296875
161	0.39306640625	10.2929719740127	-0.00425689697265625	0.393768310546875
162	0.3955078125	10.3173719739511	-0.004217529296875	0.396240234375
163	0.39794921875	10.3417719738895	-0.00423583984375	0.398681640625
164	0.400390625	10.3661719738279	-0.00424102783203125	0.401153564453125
165	0.40283203125	10.3905719737663	-0.00421173095703125	0.403533935546875
166	0.4052734375	10.4149719737047	-0.004259033203125	0.40606689453125
167	0.40771484375	10.4393719736431	-0.00419586181640625	0.408416748046875
168	0.41015625	10.4637719735815	-0.00426513671875	0.410888671875
169	0.41259765625	10.4881719735199	-0.00419281005859375	0.41326904296875
170	0.4150390625	10.5125719734583	-0.00425537109375	0.415802001953125
171	0.41748046875	10.5369719733967	-0.00420623779296875	0.418212890625
172	0.419921875	10.5613719733351	-0.00423492431640625	0.420562744140625
173	0.42236328125	10.5857719732735	-0.004228515625	0.423126220703125
174	0.4248046875	10.6101719732119	-0.00420989990234375	0.425537109375
175	0.42724609375	10.6345719731503	-0.004248046875	0.428009033203125
176	0.4296875	10.6589719730887	-0.00419158935546875	0.430419921875
177	0.43212890625	10.6833719730271	-0.00425872802734375	0.43292236328125
178	0.4345703125	10.7077719729655	-0.004185791015625	0.435302734375
179	0.43701171875	10.7321719729039	-0.0042529296875	0.43780517578125
180	0.439453125	10.7565719728423	-0.004195556640625	0.440155029296875
181	0.44189453125	10.7809719727807	-0.004234619140625	0.44256591796875
182	0.4443359375	10.8053719727191	-0.00421539306640625	0.445098876953125
183	0.44677734375	10.8297719726575	-0.00420928955078125	0.447418212890625
184	0.44921875	10.8541719725959	-0.00423736572265625	0.449981689453125
185	0.45166015625	10.8785719725342	-0.00418975830078125	0.45233154296875
186	0.4541015625	10.9029719724726	-0.00425140380859375	0.454925537109375
187	0.45654296875	10.927371972411	-0.0041778564453125	0.457183837890625
188	0.458984375	10.9517719723494	-0.00424774169921875	0.459716796875
189	0.46142578125	10.9761719722878	-0.00418365478515625	0.46209716796875
190	0.4638671875	11.0005719722262	-0.00423187255859375	0.46453857421875
191	0.46630859375	11.0249719721646	-0.00420166015625	0.467010498046875
192	0.46875	11.049371972103	-0.00420745849609375	0.46942138671875
193	0.47119140625	11.0737719720414	-0.00422454833984375	0.471923828125
194	0.4736328125	11.0981719719798	-0.0041851806640625	0.47430419921875
195	0.47607421875	11.1225719719182	-0.00424072265625	0.476806640625
196	0.478515625	11.1469719718566	-0.00417022705078125	0.479156494140625
197	0.48095703125	11.171371971795	-0.00424102783203125	0.481658935546875
198	0.4833984375	11.1957719717334	-0.0041717529296875	0.484039306640625
199	0.48583984375	11.2201719716718	-0.004228515625	0.48651123046875
200	0.48828125	11.2445719716102	-0.00418731689453125	0.488983154296875
201	0.49072265625	11.2689719715486	-0.0042041015625	0.49139404296875
202	0.4931640625	11.293371971487	-0.00420806884765625	0.49383544921875
203	0.49560546875	11.3177719714254	-0.00417877197265625	0.496307373046875
204	0.498046875	11.3421719713638	-0.0042254638671875	0.498809814453125
205	0.50048828125	11.3665719713022	-0.00415985107421875	0.50115966796875
206	0.5029296875	11.3909719712406	-0.00422943115234375	0.503692626953125
207	0.50537109375	11.415371971179	-0.00415740966796875	0.5059814453125
208	0.5078125	11.4397719711174	-0.0042193603515625	0.508514404296875
209	0.51025390625	11.4641719710557	-0.00416839599609375	0.510986328125
210	0.5126953125	11.4885719709941	-0.00419586181640625	0.513275146484375
211	0.51513671875	11.5129719709325	-0.004188232421875	0.51580810546875
212	0.517578125	11.5373719708709	-0.00417083740234375	0.518157958984375
213	0.52001953125	11.5617719708093	-0.00420928955078125	0.520751953125
214	0.5224609375	11.5861719707477	-0.004149169921875	0.5230712890625
215	0.52490234375	11.6105719706861	-0.00421630859375	0.525665283203125
216	0.52734375	11.6349719706245	-0.00414154052734375	0.527984619140625
217	0.52978515625	11.6593719705629	-0.004208984375	0.530426025390625
218	0.5322265625	11.6837719705013	-0.0041497802734375	0.532867431640625
219	0.53466796875	11.7081719704397	-0.00418731689453125	0.535369873046875
220	0.537109375	11.7325719703781	-0.00416900634765625	0.537811279296875
221	0.53955078125	11.7569719703165	-0.00416168212890625	0.540130615234375
222	0.5419921875	11.7813719702549	-0.0041900634765625	0.542694091796875
223	0.54443359375	11.8057719701933	-0.00413818359375	0.5450439453125
224	0.546875	11.8301719701317	-0.004200439453125	0.547576904296875
225	0.54931640625	11.8545719700701	-0.00412689208984375	0.549896240234375
226	0.5517578125	11.8789719700085	-0.004197998046875	0.55242919921875
227	0.55419921875	11.9033719699469	-0.0041314697265625	0.5548095703125
228	0.556640625	11.9277719698853	-0.00417938232421875	0.557220458984375
229	0.55908203125	11.9521719698237	-0.0041485595703125	0.559783935546875
230	0.5615234375	11.9765719697621	-0.00415283203125	0.5621337890625
231	0.56396484375	12.0009719697005	-0.004169921875	0.564605712890625
232	0.56640625	12.0253719696389	-0.0041265869140625	0.566986083984375
233	0.56884765625	12.0497719695773	-0.00418304443359375	0.569549560546875
234	0.5712890625	12.0741719695156	-0.00411163330078125	0.5718994140625
235	0.57373046875	12.098571969454	-0.004183349609375	0.574371337890625
236	0.576171875	12.1229719693924	-0.004111328125	0.57684326171875
237	0.57861328125	12.1473719693308	-0.0041668701171875	0.5792236328125
238	0.5810546875	12.1717719692692	-0.0041259765625	0.581695556640625
239	0.58349609375	12.1961719692076	-0.0041424560546875	0.5841064453125
240	0.5859375	12.220571969146	-0.0041473388671875	0.58660888671875
241	0.58837890625	12.2449719690844	-0.00411407470703125	0.5889892578125
242	0.5908203125	12.2693719690228	-0.0041644287109375	0.591522216796875
243	0.59326171875	12.2937719689612	-0.0040972900390625	0.593841552734375
244	0.595703125	12.3181719688996	-0.004168701171875	0.596343994140625
245	0.59814453125	12.342571968838	-0.00409210205078125	0.598785400390625
246	0.6005859375	12.3669719687764	-0.00415435791015625	0.6011962890625
247	0.60302734375	12.3913719687148	-0.00410308837890625	0.603668212890625
248	0.60546875	12.4157719686532	-0.00413116455078125	0.60601806640625
249	0.60791015625	12.4401719685916	-0.00412353515625	0.60858154296875
250	0.6103515625	12.46457196853	-0.0041015625	0.61090087890625
251	0.61279296875	12.4889719684684	-0.0041412353515625	0.613525390625
252	0.615234375	12.5133719684068	-0.0040802001953125	0.61578369140625
253	0.61767578125	12.5377719683452	-0.00414825439453125	0.618316650390625
254	0.6201171875	12.5621719682836	-0.00406951904296875	0.62066650390625
255	0.62255859375	12.586571968222	-0.004136962890625	0.623138427734375
256	0.625	12.6109719681604	-0.00407623291015625	0.625579833984375
257	0.62744140625	12.6353719680988	-0.0041143798828125	0.628021240234375
258	0.6298828125	12.6597719680371	-0.00409454345703125	0.630523681640625
259	0.63232421875	12.6841719679755	-0.00408233642578125	0.63287353515625
260	0.634765625	12.7085719679139	-0.00411102294921875	0.635406494140625
261	0.63720703125	12.7329719678523	-0.00405670166015625	0.637725830078125
262	0.6396484375	12.7573719677907	-0.00412017822265625	0.6402587890625
263	0.64208984375	12.7817719677291	-0.00404083251953125	0.64263916015625
264	0.64453125	12.8061719676675	-0.00411102294921875	0.645111083984375
265	0.64697265625	12.8305719676059	-0.00404266357421875	0.64752197265625
266	0.6494140625	12.8549719675443	-0.0040899658203125	0.649993896484375
267	0.65185546875	12.8793719674827	-0.0040582275390625	0.652435302734375
268	0.654296875	12.9037719674211	-0.00405792236328125	0.654815673828125
269	0.65673828125	12.9281719673595	-0.00407562255859375	0.65740966796875
270	0.6591796875	12.9525719672979	-0.0040301513671875	0.65966796875
271	0.66162109375	12.9769719672363	-0.0040875244140625	0.66217041015625
272	0.6640625	13.0013719671747	-0.0040093994140625	0.66455078125
273	0.66650390625	13.0257719671131	-0.00408172607421875	0.667083740234375
274	0.6689453125	13.0501719670515	-0.0040057373046875	0.669525146484375
275	0.67138671875	13.0745719669899	-0.00406158447265625	0.671905517578125
276	0.673828125	13.0989719669283	-0.0040179443359375	0.67431640625
277	0.67626953125	13.1233719668667	-0.00402984619140625	0.6767578125
278	0.6787109375	13.1477719668051	-0.0040350341796875	0.679290771484375
279	0.68115234375	13.1721719667435	-0.0039996337890625	0.681640625
280	0.68359375	13.1965719666819	-0.00404876708984375	0.684173583984375
281	0.68603515625	13.2209719666203	-0.00397308349609375	0.686492919921875
282	0.6884765625	13.2453719665587	-0.004044189453125	0.6890869140625
283	0.69091796875	13.269771966497	-0.00396514892578125	0.69140625
284	0.693359375	13.2941719664354	-0.0040264892578125	0.693878173828125
285	0.69580078125	13.3185719663738	-0.003970947265625	0.696319580078125
286	0.6982421875	13.3429719663122	-0.00399322509765625	0.69879150390625
287	0.70068359375	13.3673719662506	-0.0039849853515625	0.701171875
288	0.703125	13.391771966189	-0.003958740234375	0.70355224609375
289	0.70556640625	13.4161719661274	-0.00399871826171875	0.70611572265625
290	0.7080078125	13.4405719660658	-0.00392669677734375	0.70843505859375
291	0.71044921875	13.4649719660042	-0.0039935302734375	0.71099853515625
292	0.712890625	13.4893719659426	-0.0039105224609375	0.71331787109375
293	0.71533203125	13.513771965881	-0.003975830078125	0.715789794921875
294	0.7177734375	13.5381719658194	-0.00390838623046875	0.71820068359375
295	0.72021484375	13.5625719657578	-0.0039385986328125	0.720672607421875
296	0.72265625	13.5869719656962	-0.003916015625	0.723175048828125
297	0.72509765625	13.6113719656346	-0.00389984130859375	0.72552490234375
298	0.7275390625	13.635771965573	-0.00392822265625	0.728118896484375
299	0.72998046875	13.6601719655114	-0.003863525390625	0.7303466796875
300	0.732421875	13.6845719654498	-0.003927001953125	0.73297119140625
301	0.73486328125	13.7089719653882	-0.00384368896484375	0.7352294921875
302	0.7373046875	13.7333719653266	-0.00391357421875	0.737762451171875
303	0.73974609375	13.757771965265	-0.00383819580078125	0.740142822265625
304	0.7421875	13.7821719652034	-0.00387969970703125	0.742645263671875
305	0.74462890625	13.8065719651418	-0.00384490966796875	0.74505615234375
306	0.7470703125	13.8309719650802	-0.0038409423828125	0.7474365234375
307	0.74951171875	13.8553719650185	-0.0038555908203125	0.74951171875
308	0.751953125	13.8797719649569	-0.00380035400390625	0.75164794921875
309	0.75439453125	13.9041719648953	-0.0038543701171875	0.7537841796875
310	0.7568359375	13.9285719648337	-0.0037713623046875	0.7562255859375
311	0.75927734375	13.9529719647721	-0.00384124755859375	0.75775146484375
312	0.76171875	13.9773719647105	-0.00375640869140625	0.76141357421875
313	0.76416015625	14.0017719646489	-0.00380645751953125	0.7635498046875
314	0.7666015625	14.0261719645873	-0.0037554931640625	0.765380859375
315	0.76904296875	14.0505719645257	-0.00376373291015625	0.76873779296875
316	0.771484375	14.0749719644641	-0.00376220703125	0.77056884765625
317	0.77392578125	14.0993719644025	-0.00371429443359375	0.7733154296875
318	0.7763671875	14.1237719643409	-0.003758544921875	0.7757568359375
319	0.77880859375	14.1481719642793	-0.0036785888671875	0.7781982421875
320	0.78125	14.1725719642177	-0.00374420166015625	0.78033447265625
321	0.78369140625	14.1969719641561	-0.003653564453125	0.78277587890625
322	0.7861328125	14.2213719640945	-0.0037060546875	0.7855224609375
323	0.78857421875	14.2457719640329	-0.003642578125	0.7879638671875
324	0.791015625	14.2701719639713	-0.00365966796875	0.79010009765625
325	0.79345703125	14.2945719639097	-0.00364288330078125	0.792236328125
326	0.7958984375	14.3189719638481	-0.00360382080078125	0.79498291015625
327	0.79833984375	14.3433719637865	-0.00363433837890625	0.79742431640625
328	0.80078125	14.3677719637249	-0.0035589599609375	0.8001708984375
329	0.80322265625	14.3921719636633	-0.0036175537109375	0.8026123046875
330	0.8056640625	14.4165719636017	-0.00352142333984375	0.8050537109375
331	0.80810546875	14.4409719635401	-0.00357452392578125	0.80718994140625
332	0.810546875	14.4653719634784	-0.00350067138671875	0.8099365234375
333	0.81298828125	14.4897719634168	-0.00352447509765625	0.811767578125
334	0.8154296875	14.5141719633552	-0.0034912109375	0.8148193359375
335	0.81787109375	14.5385719632936	-0.0034600830078125	0.81756591796875
336	0.8203125	14.562971963232	-0.00347381591796875	0.8197021484375
337	0.82275390625	14.5873719631704	-0.003404541015625	0.8221435546875
338	0.8251953125	14.6117719631088	-0.0034521484375	0.823974609375
339	0.82763671875	14.6361719630472	-0.003353271484375	0.82672119140625
340	0.830078125	14.6605719629856	-0.00340240478515625	0.82916259765625
341	0.83251953125	14.684971962924	-0.00331817626953125	0.8319091796875
342	0.8349609375	14.7093719628624	-0.00334503173828125	0.8343505859375
343	0.83740234375	14.7337719628008	-0.00329620361328125	0.8367919921875
344	0.83984375	14.7581719627392	-0.0032708740234375	0.83953857421875
345	0.84228515625	14.7825719626776	-0.00326690673828125	0.8416748046875
346	0.8447265625	14.806971962616	-0.00320404052734375	0.8441162109375
347	0.84716796875	14.8313719625544	-0.0032379150390625	0.8465576171875
348	0.849609375	14.8557719624928	-0.003138427734375	0.84869384765625
349	0.85205078125	14.8801719624312	-0.00318023681640625	0.85174560546875
350	0.8544921875	14.9045719623696	-0.0030889892578125	0.853271484375
351	0.85693359375	14.928971962308	-0.0031158447265625	0.85601806640625
352	0.859375	14.9533719622464	-0.00305206298828125	0.8587646484375
353	0.86181640625	14.9777719621848	-0.00303131103515625	0.86151123046875
354	0.8642578125	15.0021719621232	-0.00300933837890625	0.863037109375
355	0.86669921875	15.0265719620616	-0.00295257568359375	0.865478515625
356	0.869140625	15.0509719619999	-0.00296966552734375	0.86822509765625
357	0.87158203125	15.0753719619383	-0.00287078857421875	0.87066650390625
358	0.8740234375	15.0997719618767	-0.00289947509765625	0.87310791015625
359	0.87646484375	15.1241719618151	-0.0028045654296875	0.875244140625
360	0.87890625	15.1485719617535	-0.00282684326171875	0.87799072265625
361	0.88134765625	15.1729719616919	-0.00274932861328125	0.8807373046875
362	0.8837890625	15.1973719616303	-0.00272979736328125	0.88287353515625
363	0.88623046875	15.2217719615687	-0.00269012451171875	0.8856201171875
364	0.888671875	15.2461719615071	-0.00263916015625	0.8880615234375
365	0.89111328125	15.2705719614455	-0.00263702392578125	0.889892578125
366	0.8935546875	15.2949719613839	-0.00253936767578125	0.892333984375
367	0.89599609375	15.3193719613223	-0.00255340576171875	0.8953857421875
368	0.8984375	15.3437719612607	-0.00245574951171875	0.89752197265625
369	0.90087890625	15.3681719611991	-0.0024700927734375	0.9002685546875
370	0.9033203125	15.3925719611375	-0.00238128662109375	0.9027099609375
371	0.90576171875	15.4169719610759	-0.00235870361328125	0.90423583984375
372	0.908203125	15.4413719610143	-0.0023028564453125	0.9075927734375
373	0.91064453125	15.4657719609527	-0.00225494384765625	0.909423828125
374	0.9130859375	15.4901719608911	-0.00223388671875	0.91217041015625
375	0.91552734375	15.5145719608295	-0.00213714599609375	0.91461181640625
376	0.91796875	15.5389719607679	-0.00213409423828125	0.91766357421875
377	0.92041015625	15.5633719607063	-0.00203704833984375	0.919189453125
378	0.9228515625	15.5877719606447	-0.002039794921875	0.92254638671875
379	0.92529296875	15.6121719605831	-0.00194183349609375	0.9246826171875
380	0.927734375	15.6365719605215	-0.00191436767578125	0.92681884765625
381	0.93017578125	15.6609719604598	-0.00184356689453125	0.9295654296875
382	0.9326171875	15.6853719603982	-0.001796875	0.9320068359375
383	0.93505859375	15.7097719603366	-0.00175750732421875	0.9344482421875
384	0.9375	15.734171960275	-0.00166168212890625	0.936279296875
385	0.93994140625	15.7585719602134	-0.0016412353515625	0.93902587890625
386	0.9423828125	15.7829719601518	-0.00154510498046875	0.9417724609375
387	0.94482421875	15.8073719600902	-0.001534423828125	0.94390869140625
388	0.947265625	15.8317719600286	-0.00142974853515625	0.9466552734375
389	0.94970703125	15.856171959967	-0.00139373779296875	0.9490966796875
390	0.9521484375	15.8805719599054	-0.00131134033203125	0.95123291015625
391	0.95458984375	15.9049719598438	-0.00126312255859375	0.9539794921875
392	0.95703125	15.9293719597822	-0.001207275390625	0.9564208984375
393	0.95947265625	15.9537719597206	-0.00111175537109375	0.95855712890625
394	0.9619140625	15.978171959659	-0.00107330322265625	0.960693359375
395	0.96435546875	16.0025719595974	-0.00097869873046875	0.9637451171875
396	0.966796875	16.0269719595358	-0.00095306396484375	0.96649169921875
397	0.96923828125	16.0513719594742	-0.00084197998046875	0.96832275390625
398	0.9716796875	16.0757719594126	-0.00079620361328125	0.97076416015625
399	0.97412109375	16.100171959351	-0.00070465087890625	0.97381591796875
400	0.9765625	16.1245719592894	-0.000653076171875	0.975341796875
401	0.97900390625	16.1489719592278	-0.0005816650390625	0.97808837890625
402	0.9814453125	16.1733719591662	-0.0004852294921875	0.9808349609375
403	0.98388671875	16.1977719591046	-0.00042987060546875	0.9832763671875
404	0.986328125	16.222171959043	-0.000337066650390625	0.9857177734375
405	0.98876953125	16.2465719589813	-0.00029541015625	0.9881591796875
406	0.9912109375	16.2709719589197	-0.000180145263671875	0.9906005859375
407	0.99365234375	16.2953719588581	-0.00012200927734375	0.99273681640625
408	0.99609375	16.3197719587965	-2.3834228515625E-05	0.99517822265625
409	0.99853515625	16.3441719587349	3.4149169921875E-05	0.9979248046875
410	1.0009765625	16.3685719586733	0.000118316650390625	1.0003662109375
411	1.00341796875	16.3929719586117	0.000217987060546875	1.00250244140625
412	1.005859375	16.4173719585501	0.000288970947265625	1.00494384765625
413	1.00830078125	16.4417719584885	0.000380706787109375	1.007080078125
414	1.0107421875	16.4661719584269	0.0004375	1.00982666015625
415	1.01318359375	16.4905719583653	0.00055877685546875	1.01165771484375
416	1.015625	16.5149719583037	0.00062774658203125	1.0137939453125
417	1.01806640625	16.5393719582421	0.00073272705078125	1.01715087890625
418	1.0205078125	16.5637719581805	0.00079742431640625	1.01959228515625
419	1.02294921875	16.5881719581189	0.0008935546875	1.02203369140625
420	1.025390625	16.6125719580573	0.00099700927734375	1.02447509765625
421	1.02783203125	16.6369719579957	0.00108245849609375	1.02691650390625
422	1.0302734375	16.6613719579341	0.00117431640625	1.029052734375
423	1.03271484375	16.6857719578725	0.001246337890625	1.031494140625
424	1.03515625	16.7101719578109	0.00137237548828125	1.033935546875
425	1.03759765625	16.7345719577493	0.001453857421875	1.03668212890625
426	1.0400390625	16.7589719576877	0.0015625	1.03912353515625
427	1.04248046875	16.7833719576261	0.0016357421875	1.041259765625
428	1.044921875	16.8077719575645	0.0017413330078125	1.0443115234375
429	1.04736328125	16.8321719575029	0.00185028076171875	1.04644775390625
430	1.0498046875	16.8565719574412	0.00194854736328125	1.0491943359375
431	1.05224609375	16.8809719573796	0.00204193115234375	1.051025390625
432	1.0546875	16.905371957318	0.00212799072265625	1.05377197265625
433	1.05712890625	16.9297719572564	0.00225921630859375	1.055908203125
434	1.0595703125	16.9541719571948	0.002352294921875	1.0589599609375
435	1.06201171875	16.9785719571332	0.0024639892578125	1.06109619140625
436	1.064453125	17.0029719570716	0.00254669189453125	1.06292724609375
437	1.06689453125	17.02737195701	0.00266204833984375	1.06597900390625
438	1.0693359375	17.0517719569484	0.00277679443359375	1.06903076171875
439	1.07177734375	17.0761719568868	0.00288543701171875	1.0711669921875
440	1.07421875	17.1005719568252	0.00298187255859375	1.0736083984375
441	1.07666015625	17.1249719567636	0.0030792236328125	1.0760498046875
442	1.0791015625	17.149371956702	0.00321380615234375	1.077880859375
443	1.08154296875	17.1737719566404	0.003316650390625	1.08062744140625
444	1.083984375	17.1981719565788	0.003427734375	1.0833740234375
445	1.08642578125	17.2225719565172	0.0035174560546875	1.08551025390625
446	1.0888671875	17.2469719564556	0.0036358642578125	1.08795166015625
447	1.09130859375	17.271371956394	0.00375	1.090087890625
448	1.09375	17.2957719563324	0.0038568115234375	1.09283447265625
449	1.09619140625	17.3201719562708	0.00394622802734375	1.094970703125
450	1.0986328125	17.3445719562092	0.0040380859375	1.097412109375
451	1.10107421875	17.3689719561476	0.0041510009765625	1.10015869140625
452	1.103515625	17.393371956086	0.00423614501953125	1.102294921875
453	1.10595703125	17.4177719560244	0.00431671142578125	1.104736328125
454	1.1083984375	17.4421719559627	0.0043829345703125	1.10748291015625
455	1.11083984375	17.4665719559011	0.0044622802734375	1.109619140625
456	1.11328125	17.4909719558395	0.00453338623046875	1.11175537109375
457	1.11572265625	17.5153719557779	0.00459747314453125	1.114501953125
458	1.1181640625	17.5397719557163	0.0046478271484375	1.11724853515625
459	1.12060546875	17.5641719556547	0.00470062255859375	1.11968994140625
460	1.123046875	17.5885719555931	0.00476104736328125	1.12213134765625
461	1.12548828125	17.6129719555315	0.00480865478515625	1.12457275390625
462	1.1279296875	17.6373719554699	0.00485076904296875	1.126708984375
463	1.13037109375	17.6617719554083	0.00488922119140625	1.129150390625
464	1.1328125	17.6861719553467	0.00493377685546875	1.131591796875
465	1.13525390625	17.7105719552851	0.0049749755859375	1.134033203125
466	1.1376953125	17.7349719552235	0.00501251220703125	1.136474609375
467	1.14013671875	17.7593719551619	0.0050433349609375	1.13922119140625
468	1.142578125	17.7837719551003	0.00507598876953125	1.14166259765625
469	1.14501953125	17.8081719550387	0.00511383056640625	1.14410400390625
470	1.1474609375	17.8325719549771	0.005145263671875	1.1468505859375
471	1.14990234375	17.8569719549155	0.005172119140625	1.1492919921875
472	1.15234375	17.8813719548539	0.00519866943359375	1.151123046875
473	1.15478515625	17.9057719547923	0.0052294921875	1.15325927734375
474	1.1572265625	17.9301719547307	0.0052581787109375	1.1566162109375
475	1.15966796875	17.9545719546691	0.005284423828125	1.15875244140625
476	1.162109375	17.9789719546075	0.00530670166015625	1.160888671875
477	1.16455078125	18.0033719545459	0.00533111572265625	1.163330078125
478	1.1669921875	18.0277719544843	0.00535858154296875	1.165771484375
479	1.16943359375	18.0521719544226	0.005382080078125	1.168212890625
480	1.171875	18.076571954361	0.0054022216796875	1.170654296875
481	1.17431640625	18.1009719542994	0.0054229736328125	1.173095703125
482	1.1767578125	18.1253719542378	0.00544677734375	1.17523193359375
483	1.17919921875	18.1497719541762	0.00546905517578125	1.177978515625
484	1.181640625	18.1741719541146	0.00548919677734375	1.180419921875
485	1.18408203125	18.198571954053	0.0055072021484375	1.18255615234375
486	1.1865234375	18.2229719539914	0.0055267333984375	1.185302734375
487	1.18896484375	18.2473719539298	0.0055487060546875	1.18804931640625
488	1.19140625	18.2717719538682	0.005567626953125	1.1907958984375
489	1.19384765625	18.2961719538066	0.00558380126953125	1.19293212890625
490	1.1962890625	18.320571953745	0.00560089111328125	1.19537353515625
491	1.19873046875	18.3449719536834	0.0056207275390625	1.197509765625
492	1.201171875	18.3693719536218	0.0056390380859375	1.20025634765625
493	1.19873046875	18.3937719535602	0.0056201171875	1.19720458984375
494	1.1962890625	18.4181719534986	0.00559906005859375	1.19537353515625
495	1.19384765625	18.442571953437	0.00557952880859375	1.192626953125
496	1.19140625	18.4669719533754	0.00556182861328125	1.1907958984375
497	1.18896484375	18.4913719533138	0.0055419921875	1.18804931640625
498	1.1865234375	18.5157719532522	0.00551849365234375	1.185302734375
499	1.18408203125	18.5401719531906	0.0054962158203125	1.18316650390625
500	1.181640625	18.564571953129	0.005477294921875	1.1810302734375
501	1.17919921875	18.5889719530674	0.00545623779296875	1.177978515625
502	1.1767578125	18.6133719530058	0.0054327392578125	1.17584228515625
503	1.17431640625	18.6377719529441	0.00540679931640625	1.1724853515625
504	1.171875	18.6621719528825	0.00538299560546875	1.170654296875
505	1.16943359375	18.6865719528209	0.00536102294921875	1.168212890625
506	1.1669921875	18.7109719527593	0.00533599853515625	1.165771484375
507	1.16455078125	18.7353719526977	0.00530670166015625	1.1639404296875
508	1.162109375	18.7597719526361	0.00527801513671875	1.160888671875
509	1.15966796875	18.7841719525745	0.0052545166015625	1.158447265625
510	1.1572265625	18.8085719525129	0.00522613525390625	1.1566162109375
511	1.15478515625	18.8329719524513	0.0051953125	1.1529541015625
512	1.15234375	18.8573719523897	0.00516082763671875	1.151123046875
513	1.14990234375	18.8817719523281	0.00512969970703125	1.14898681640625
514	1.1474609375	18.9061719522665	0.0050994873046875	1.14654541015625
515	1.14501953125	18.9305719522049	0.00506500244140625	1.14410400390625
516	1.142578125	18.9549719521433	0.0050238037109375	1.14166259765625
517	1.14013671875	18.9793719520817	0.00498321533203125	1.13922119140625
518	1.1376953125	19.0037719520201	0.004949951171875	1.13677978515625
519	1.13525390625	19.0281719519585	0.0049072265625	1.134033203125
520	1.1328125	19.0525719518969	0.00486114501953125	1.131591796875
521	1.13037109375	19.0769719518353	0.00480712890625	1.129150390625
522	1.1279296875	19.1013719517737	0.004759521484375	1.12640380859375
523	1.12548828125	19.1257719517121	0.00470947265625	1.124267578125
524	1.123046875	19.1501719516505	0.00465301513671875	1.121826171875
525	1.12060546875	19.1745719515889	0.004583740234375	1.1199951171875
526	1.1181640625	19.1989719515273	0.0045123291015625	1.116943359375
527	1.11572265625	19.2233719514657	0.00445404052734375	1.114501953125
528	1.11328125	19.247771951404	0.004373779296875	1.112060546875
529	1.11083984375	19.2721719513424	0.00428924560546875	1.11053466796875
530	1.1083984375	19.2965719512808	0.0041851806640625	1.107177734375
531	1.10595703125	19.3209719512192	0.00409912109375	1.104736328125
532	1.103515625	19.3453719511576	0.00400177001953125	1.102294921875
533	1.10107421875	19.369771951096	0.0038995361328125	1.09954833984375
534	1.0986328125	19.3941719510344	0.00377593994140625	1.097412109375
535	1.09619140625	19.4185719509728	0.00365631103515625	1.094970703125
536	1.09375	19.4429719509112	0.00356597900390625	1.092529296875
537	1.09130859375	19.4673719508496	0.00344329833984375	1.090087890625
538	1.0888671875	19.491771950788	0.003328857421875	1.08795166015625
539	1.08642578125	19.5161719507264	0.00319122314453125	1.085205078125
540	1.083984375	19.5405719506648	0.00309478759765625	1.0833740234375
541	1.08154296875	19.5649719506032	0.002979736328125	1.08123779296875
542	1.0791015625	19.5893719505416	0.00287200927734375	1.077880859375
543	1.07666015625	19.61377195048	0.0027423095703125	1.07635498046875
544	1.07421875	19.6381719504184	0.0026239013671875	1.072998046875
545	1.07177734375	19.6625719503568	0.00253692626953125	1.07086181640625
546	1.0693359375	19.6869719502952	0.002415771484375	1.068115234375
547	1.06689453125	19.7113719502336	0.00230926513671875	1.06597900390625
548	1.064453125	19.735771950172	0.00217529296875	1.06353759765625
549	1.06201171875	19.7601719501104	0.00209320068359375	1.06109619140625
550	1.0595703125	19.7845719500488	0.00197906494140625	1.0589599609375
551	1.05712890625	19.8089719499872	0.00188323974609375	1.055908203125
552	1.0546875	19.8333719499255	0.00175994873046875	1.053466796875
553	1.05224609375	19.8577719498639	0.0016534423828125	1.051025390625
554	1.0498046875	19.8821719498023	0.0015728759765625	1.04888916015625
555	1.04736328125	19.9065719497407	0.001458740234375	1.0467529296875
556	1.044921875	19.9309719496791	0.00136444091796875	1.043701171875
557	1.04248046875	19.9553719496175	0.00123687744140625	1.041259765625
558	1.0400390625	19.9797719495559	0.001170654296875	1.0394287109375
559	1.03759765625	20.0041719494943	0.00105804443359375	1.03668212890625
560	1.03515625	20.0285719494327	0.00097686767578125	1.033935546875
561	1.03271484375	20.0529719493711	0.00085968017578125	1.03179931640625
562	1.0302734375	20.0773719493095	0.00076751708984375	1.029052734375
563	1.02783203125	20.1017719492479	0.00069183349609375	1.02691650390625
564	1.025390625	20.1261719491863	0.00058746337890625	1.024169921875
565	1.02294921875	20.1505719491247	0.00050445556640625	1.02203369140625
566	1.0205078125	20.1749719490631	0.0003839111328125	1.01959228515625
567	1.01806640625	20.1993719490015	0.000332366943359375	1.016845703125
568	1.015625	20.2237719489399	0.000222412109375	1.0150146484375
569	1.01318359375	20.2481719488783	0.000156341552734375	1.0125732421875
570	1.0107421875	20.2725719488167	4.364013671875E-05	1.009521484375
571	1.00830078125	20.2969719487551	-3.3050537109375E-05	1.007080078125
572	1.005859375	20.3213719486935	-0.000104339599609375	1.00494384765625
573	1.00341796875	20.3457719486319	-0.000197601318359375	1.0028076171875
574	1.0009765625	20.3701719485703	-0.000268798828125	0.999755859375
575	0.99853515625	20.3945719485087	-0.00038201904296875	0.99761962890625
576	0.99609375	20.4189719484471	-0.00041766357421875	0.9954833984375
577	0.99365234375	20.4433719483854	-0.00052581787109375	0.99273681640625
578	0.9912109375	20.4677719483238	-0.00057464599609375	0.99090576171875
579	0.98876953125	20.4921719482622	-0.00068511962890625	0.9881591796875
580	0.986328125	20.5165719482006	-0.00074249267578125	0.9857177734375
581	0.98388671875	20.540971948139	-0.00081207275390625	0.9832763671875
582	0.9814453125	20.5653719480774	-0.00089111328125	0.980224609375
583	0.97900390625	20.5897719480158	-0.0009539794921875	0.977783203125
584	0.9765625	20.6141719479542	-0.0010577392578125	0.97564697265625
585	0.97412109375	20.6385719478926	-0.0010791015625	0.9735107421875
586	0.9716796875	20.662971947831	-0.0011859130859375	0.9710693359375
587	0.96923828125	20.6873719477694	-0.00121673583984375	0.9686279296875
588	0.966796875	20.7117719477078	-0.00132476806640625	0.96649169921875
589	0.96435546875	20.7361719476462	-0.00136260986328125	0.96343994140625
590	0.9619140625	20.7605719475846	-0.00143280029296875	0.96160888671875
591	0.95947265625	20.784971947523	-0.00149658203125	0.95916748046875
592	0.95703125	20.8093719474614	-0.001551513671875	0.955810546875
593	0.95458984375	20.8337719473998	-0.00164459228515625	0.95367431640625
594	0.9521484375	20.8581719473382	-0.001654052734375	0.950927734375
595	0.94970703125	20.8825719472766	-0.00175811767578125	0.94879150390625
596	0.947265625	20.906971947215	-0.00177093505859375	0.9466552734375
597	0.94482421875	20.9313719471534	-0.00187774658203125	0.94390869140625
598	0.9423828125	20.9557719470918	-0.0018951416015625	0.94146728515625
599	0.93994140625	20.9801719470302	-0.00196746826171875	0.93902587890625
600	0.9375	21.0045719469686	-0.0020135498046875	0.93658447265625
601	0.93505859375	21.0289719469069	-0.002064208984375	0.93414306640625
602	0.9326171875	21.0533719468453	-0.0021435546875	0.93231201171875
603	0.93017578125	21.0777719467837	-0.002144775390625	0.9295654296875
604	0.927734375	21.1021719467221	-0.00224395751953125	0.92681884765625
605	0.92529296875	21.1265719466605	-0.00224090576171875	0.9246826171875
606	0.9228515625	21.1509719465989	-0.0023468017578125	0.921630859375
607	0.92041015625	21.1753719465373	-0.00234375	0.91949462890625
608	0.91796875	21.1997719464757	-0.00241973876953125	0.916748046875
609	0.91552734375	21.2241719464141	-0.00244659423828125	0.91461181640625
610	0.9130859375	21.2485719463525	-0.00249481201171875	0.9124755859375
611	0.91064453125	21.2729719462909	-0.00255889892578125	0.90972900390625
612	0.908203125	21.2973719462293	-0.002554931640625	0.90728759765625
613	0.90576171875	21.3217719461677	-0.00264739990234375	0.904541015625
614	0.9033203125	21.3461719461061	-0.002630615234375	0.9027099609375
615	0.90087890625	21.3705719460445	-0.0027349853515625	0.89996337890625
616	0.8984375	21.3949719459829	-0.00271240234375	0.8984375
617	0.89599609375	21.4193719459213	-0.002791748046875	0.89569091796875
618	0.8935546875	21.4437719458597	-0.002799072265625	0.892333984375
619	0.89111328125	21.4681719457981	-0.002847900390625	0.89019775390625
620	0.888671875	21.4925719457365	-0.00289581298828125	0.8880615234375
621	0.88623046875	21.5169719456749	-0.002890625	0.8856201171875
622	0.8837890625	21.5413719456133	-0.00297393798828125	0.882568359375
623	0.88134765625	21.5657719455517	-0.0029473876953125	0.88104248046875
624	0.87890625	21.5901719454901	-0.00304901123046875	0.877685546875
625	0.87646484375	21.6145719454285	-0.0030096435546875	0.8758544921875
626	0.8740234375	21.6389719453668	-0.0030938720703125	0.87310791015625
627	0.87158203125	21.6633719453052	-0.0030816650390625	0.8709716796875
628	0.869140625	21.6877719452436	-0.00313568115234375	0.867919921875
629	0.86669921875	21.712171945182	-0.00316497802734375	0.86578369140625
630	0.8642578125	21.7365719451204	-0.00316314697265625	0.863037109375
631	0.86181640625	21.7609719450588	-0.00323455810546875	0.86090087890625
632	0.859375	21.7853719449972	-0.00320281982421875	0.85845947265625
633	0.85693359375	21.8097719449356	-0.00330108642578125	0.85662841796875
634	0.8544921875	21.834171944874	-0.0032489013671875	0.85296630859375
635	0.85205078125	21.8585719448124	-0.00333892822265625	0.8514404296875
636	0.849609375	21.8829719447508	-0.00330963134765625	0.848388671875
637	0.84716796875	21.9073719446892	-0.0033697509765625	0.845947265625
638	0.8447265625	21.9317719446276	-0.00338134765625	0.84381103515625
639	0.84228515625	21.956171944566	-0.00338531494140625	0.84136962890625
640	0.83984375	21.9805719445044	-0.00344329833984375	0.8392333984375
641	0.83740234375	22.0049719444428	-0.0034112548828125	0.83648681640625
642	0.8349609375	22.0293719443812	-0.003502197265625	0.833740234375
643	0.83251953125	22.0537719443196	-0.0034417724609375	0.8319091796875
644	0.830078125	22.078171944258	-0.00353302001953125	0.82916259765625
645	0.82763671875	22.1025719441964	-0.00348846435546875	0.8270263671875
646	0.8251953125	22.1269719441348	-0.0035552978515625	0.8245849609375
647	0.82275390625	22.1513719440732	-0.00354827880859375	0.821533203125
648	0.8203125	22.1757719440116	-0.00356231689453125	0.819091796875
649	0.81787109375	22.20017194395	-0.0036053466796875	0.8172607421875
650	0.8154296875	22.2245719438883	-0.00357666015625	0.81451416015625
651	0.81298828125	22.2489719438267	-0.003658447265625	0.811767578125
652	0.810546875	22.2733719437651	-0.0035943603515625	0.80963134765625
653	0.80810546875	22.2977719437035	-0.00368560791015625	0.80718994140625
654	0.8056640625	22.3221719436419	-0.0036297607421875	0.8050537109375
655	0.80322265625	22.3465719435803	-0.0037030029296875	0.8026123046875
656	0.80078125	22.3709719435187	-0.00367919921875	0.799560546875
657	0.79833984375	22.3953719434571	-0.00370452880859375	0.79681396484375
658	0.7958984375	22.4197719433955	-0.00373046875	0.79498291015625
659	0.79345703125	22.4441719433339	-0.00370819091796875	0.79193115234375
660	0.791015625	22.4685719432723	-0.00377838134765625	0.7904052734375
661	0.78857421875	22.4929719432107	-0.00371490478515625	0.78765869140625
662	0.7861328125	22.5173719431491	-0.00380462646484375	0.78521728515625
663	0.78369140625	22.5417719430875	-0.0037408447265625	0.78338623046875
664	0.78125	22.5661719430259	-0.00381927490234375	0.7806396484375
665	0.77880859375	22.5905719429643	-0.00378143310546875	0.777587890625
666	0.7763671875	22.6149719429027	-0.00381683349609375	0.77545166015625
667	0.77392578125	22.6393719428411	-0.0038262939453125	0.77301025390625
668	0.771484375	22.6637719427795	-0.00381378173828125	0.7708740234375
669	0.76904296875	22.6881719427179	-0.0038714599609375	0.7684326171875
670	0.7666015625	22.7125719426563	-0.0038134765625	0.7659912109375
671	0.76416015625	22.7369719425947	-0.00389862060546875	0.76324462890625
672	0.76171875	22.7613719425331	-0.00383087158203125	0.760498046875
673	0.75927734375	22.7857719424715	-0.00391265869140625	0.7586669921875
674	0.7568359375	22.8101719424099	-0.00386138916015625	0.75592041015625
675	0.75439453125	22.8345719423482	-0.003907470703125	0.7537841796875
676	0.751953125	22.8589719422866	-0.00390228271484375	0.7513427734375
677	0.74951171875	22.883371942225	-0.0039007568359375	0.7489013671875
678	0.7470703125	22.9077719421634	-0.00394622802734375	0.74755859375
679	0.74462890625	22.9321719421018	-0.00389373779296875	0.745025634765625
680	0.7421875	22.9565719420402	-0.003973388671875	0.74267578125
681	0.73974609375	22.9809719419786	-0.0039031982421875	0.74017333984375
682	0.7373046875	23.005371941917	-0.0039862060546875	0.73779296875
683	0.73486328125	23.0297719418554	-0.0039263916015625	0.73529052734375
684	0.732421875	23.0541719417938	-0.0039801025390625	0.73284912109375
685	0.72998046875	23.0785719417322	-0.00396240234375	0.730499267578125
686	0.7275390625	23.1029719416706	-0.00397064208984375	0.72796630859375
687	0.72509765625	23.127371941609	-0.0040020751953125	0.725616455078125
688	0.72265625	23.1517719415474	-0.003958740234375	0.72308349609375
689	0.72021484375	23.1761719414858	-0.0040289306640625	0.72076416015625
690	0.7177734375	23.2005719414242	-0.00396087646484375	0.718170166015625
691	0.71533203125	23.2249719413626	-0.00404388427734375	0.71588134765625
692	0.712890625	23.249371941301	-0.0039776611328125	0.71331787109375
693	0.71044921875	23.2737719412394	-0.00403900146484375	0.7109375
694	0.7080078125	23.2981719411778	-0.004007568359375	0.708526611328125
695	0.70556640625	23.3225719411162	-0.0040264892578125	0.7060546875
696	0.703125	23.3469719410546	-0.00404327392578125	0.70367431640625
697	0.70068359375	23.371371940993	-0.00401092529296875	0.701171875
698	0.6982421875	23.3957719409314	-0.004071044921875	0.69879150390625
699	0.69580078125	23.4201719408697	-0.0040069580078125	0.6962890625
700	0.693359375	23.4445719408081	-0.00408782958984375	0.69390869140625
701	0.69091796875	23.4689719407465	-0.00401641845703125	0.69140625
702	0.6884765625	23.4933719406849	-0.004083251953125	0.688995361328125
703	0.68603515625	23.5177719406233	-0.00404083251953125	0.68658447265625
704	0.68359375	23.5421719405617	-0.004071044921875	0.684173583984375
705	0.68115234375	23.5665719405001	-0.00407379150390625	0.6817626953125
706	0.6787109375	23.5909719404385	-0.0040533447265625	0.67919921875
707	0.67626953125	23.6153719403769	-0.0041033935546875	0.676910400390625
708	0.673828125	23.6397719403153	-0.00404510498046875	0.67431640625
709	0.67138671875	23.6641719402537	-0.004122314453125	0.6719970703125
710	0.6689453125	23.6885719401921	-0.00404876708984375	0.66949462890625
711	0.66650390625	23.7129719401305	-0.0041217041015625	0.6671142578125
712	0.6640625	23.7373719400689	-0.0040692138671875	0.66461181640625
713	0.66162109375	23.7617719400073	-0.00411102294921875	0.662139892578125
714	0.6591796875	23.7861719399457	-0.0041021728515625	0.65972900390625
715	0.65673828125	23.8105719398841	-0.00409393310546875	0.657257080078125
716	0.654296875	23.8349719398225	-0.0041326904296875	0.6549072265625
717	0.65185546875	23.8593719397609	-0.0040826416015625	0.65240478515625
718	0.6494140625	23.8837719396993	-0.00415374755859375	0.650054931640625
719	0.64697265625	23.9081719396377	-0.004080810546875	0.647552490234375
720	0.64453125	23.9325719395761	-0.00415679931640625	0.645172119140625
721	0.64208984375	23.9569719395145	-0.00409759521484375	0.642669677734375
722	0.6396484375	23.9813719394529	-0.00414794921875	0.640228271484375
723	0.63720703125	24.0057719393913	-0.004124755859375	0.6378173828125
724	0.634765625	24.0301719393296	-0.0041290283203125	0.635345458984375
725	0.63232421875	24.054571939268	-0.004154052734375	0.6329345703125
726	0.6298828125	24.0789719392064	-0.00411376953125	0.630462646484375
727	0.62744140625	24.1033719391448	-0.0041778564453125	0.628082275390625
728	0.625	24.1277719390832	-0.004107666015625	0.62554931640625
729	0.62255859375	24.1521719390216	-0.0041839599609375	0.623199462890625
730	0.6201171875	24.17657193896	-0.00411895751953125	0.6207275390625
731	0.61767578125	24.2009719388984	-0.00417755126953125	0.6182861328125
732	0.615234375	24.2253719388368	-0.0041436767578125	0.615875244140625
733	0.61279296875	24.2497719387752	-0.00416015625	0.61334228515625
734	0.6103515625	24.2741719387136	-0.00417327880859375	0.611053466796875
735	0.60791015625	24.298571938652	-0.00414459228515625	0.6085205078125
736	0.60546875	24.3229719385904	-0.00419891357421875	0.606170654296875
737	0.60302734375	24.3473719385288	-0.00413330078125	0.603607177734375
738	0.6005859375	24.3717719384672	-0.00420806884765625	0.601318359375
739	0.59814453125	24.3961719384056	-0.00413970947265625	0.5987548828125
740	0.595703125	24.420571938344	-0.00420379638671875	0.5963134765625
741	0.59326171875	24.4449719382824	-0.00415863037109375	0.593902587890625
742	0.5908203125	24.4693719382208	-0.0041864013671875	0.59149169921875
743	0.58837890625	24.4937719381592	-0.004185791015625	0.58905029296875
744	0.5859375	24.5181719380976	-0.00416717529296875	0.5865478515625
745	0.58349609375	24.542571938036	-0.00421112060546875	0.584197998046875
746	0.5810546875	24.5669719379744	-0.0041522216796875	0.581634521484375
747	0.57861328125	24.5913719379128	-0.0042230224609375	0.57928466796875
748	0.576171875	24.6157719378512	-0.00415283203125	0.5767822265625
749	0.57373046875	24.6401719377895	-0.0042230224609375	0.574432373046875
750	0.5712890625	24.6645719377279	-0.00416961669921875	0.5718994140625
751	0.56884765625	24.6889719376663	-0.0042083740234375	0.56951904296875
752	0.56640625	24.7133719376047	-0.0041961669921875	0.567047119140625
753	0.56396484375	24.7377719375431	-0.00419036865234375	0.564544677734375
754	0.5615234375	24.7621719374815	-0.0042236328125	0.56231689453125
755	0.55908203125	24.7865719374199	-0.004173583984375	0.55975341796875
756	0.556640625	24.8109719373583	-0.00424041748046875	0.55731201171875
757	0.55419921875	24.8353719372967	-0.00417205810546875	0.5548095703125
758	0.5517578125	24.8597719372351	-0.00424407958984375	0.55242919921875
759	0.54931640625	24.8841719371735	-0.004183349609375	0.54998779296875
760	0.546875	24.9085719371119	-0.004232177734375	0.547515869140625
761	0.54443359375	24.9329719370503	-0.0042071533203125	0.545135498046875
762	0.5419921875	24.9573719369887	-0.00421295166015625	0.5426025390625
763	0.53955078125	24.9817719369271	-0.00423614501953125	0.54022216796875
764	0.537109375	25.0061719368655	-0.00419647216796875	0.537689208984375
765	0.53466796875	25.0305719368039	-0.004256591796875	0.535400390625
766	0.5322265625	25.0549719367423	-0.00419036865234375	0.532867431640625
767	0.52978515625	25.0793719366807	-0.0042633056640625	0.530487060546875
768	0.52734375	25.1037719366191	-0.00419708251953125	0.5279541015625
769	0.52490234375	25.1281719365575	-0.00425384521484375	0.52557373046875
770	0.5224609375	25.1525719364959	-0.00421875	0.52313232421875
771	0.52001953125	25.1769719364343	-0.00423675537109375	0.52069091796875
772	0.517578125	25.2013719363727	-0.00424652099609375	0.518310546875
773	0.51513671875	25.225771936311	-0.00421661376953125	0.515716552734375
774	0.5126953125	25.2501719362494	-0.00426788330078125	0.51348876953125
775	0.51025390625	25.2745719361878	-0.0042059326171875	0.51092529296875
776	0.5078125	25.2989719361262	-0.00427642822265625	0.508544921875
777	0.50537109375	25.3233719360646	-0.0042071533203125	0.50604248046875
778	0.5029296875	25.347771936003	-0.00426971435546875	0.50360107421875
779	0.50048828125	25.3721719359414	-0.004224853515625	0.501129150390625
780	0.498046875	25.3965719358798	-0.0042529296875	0.4986572265625
781	0.49560546875	25.4209719358182	-0.00425018310546875	0.496337890625
782	0.4931640625	25.4453719357566	-0.00423126220703125	0.493804931640625
783	0.49072265625	25.469771935695	-0.0042730712890625	0.49151611328125
784	0.48828125	25.4941719356334	-0.004217529296875	0.48895263671875
785	0.48583984375	25.5185719355718	-0.0042852783203125	0.486572265625
786	0.4833984375	25.5429719355102	-0.0042144775390625	0.484039306640625
787	0.48095703125	25.5673719354486	-0.004281005859375	0.481689453125
788	0.478515625	25.591771935387	-0.004227294921875	0.479156494140625
789	0.47607421875	25.6161719353254	-0.0042657470703125	0.47674560546875
790	0.4736328125	25.6405719352638	-0.00425018310546875	0.474395751953125
791	0.47119140625	25.6649719352022	-0.00424407958984375	0.47186279296875
792	0.46875	25.6893719351406	-0.00427490234375	0.469482421875
793	0.46630859375	25.713771935079	-0.00422760009765625	0.46697998046875
794	0.4638671875	25.7381719350174	-0.004290771484375	0.464599609375
795	0.46142578125	25.7625719349558	-0.00422088623046875	0.46209716796875
796	0.458984375	25.7869719348942	-0.00429107666015625	0.459716796875
797	0.45654296875	25.8113719348326	-0.00423095703125	0.457275390625
798	0.4541015625	25.8357719347709	-0.00427947998046875	0.454833984375
799	0.45166015625	25.8601719347093	-0.0042535400390625	0.452423095703125
800	0.44921875	25.8845719346477	-0.0042596435546875	0.44989013671875
801	0.44677734375	25.9089719345861	-0.0042791748046875	0.44757080078125
802	0.4443359375	25.9333719345245	-0.00424163818359375	0.445068359375
803	0.44189453125	25.9577719344629	-0.00429779052734375	0.442718505859375
804	0.439453125	25.9821719344013	-0.0042315673828125	0.44012451171875
805	0.43701171875	26.0065719343397	-0.004302978515625	0.437744140625
806	0.4345703125	26.0309719342781	-0.00423797607421875	0.435302734375
807	0.43212890625	26.0553719342165	-0.00429412841796875	0.432891845703125
808	0.4296875	26.0797719341549	-0.0042572021484375	0.430419921875
809	0.42724609375	26.1041719340933	-0.00427490234375	0.427947998046875
810	0.4248046875	26.1285719340317	-0.00428192138671875	0.425537109375
811	0.42236328125	26.1529719339701	-0.00425445556640625	0.423065185546875
812	0.419921875	26.1773719339085	-0.00430267333984375	0.42071533203125
813	0.41748046875	26.2017719338469	-0.0042413330078125	0.418212890625
814	0.4150390625	26.2261719337853	-0.0043115234375	0.41583251953125
815	0.41259765625	26.2505719337237	-0.00424407958984375	0.413330078125
816	0.41015625	26.2749719336621	-0.0043060302734375	0.41094970703125
817	0.40771484375	26.2993719336005	-0.00425872802734375	0.408447265625
818	0.4052734375	26.3237719335389	-0.00428680419921875	0.406036376953125
819	0.40283203125	26.3481719334773	-0.00428253173828125	0.403533935546875
820	0.400390625	26.3725719334157	-0.004267578125	0.40106201171875
821	0.39794921875	26.3969719333541	-0.004306640625	0.398681640625
822	0.3955078125	26.4213719332924	-0.0042510986328125	0.39617919921875
823	0.39306640625	26.4457719332308	-0.0043170166015625	0.39385986328125
824	0.390625	26.4701719331692	-0.00424835205078125	0.391357421875
825	0.38818359375	26.4945719331076	-0.004315185546875	0.388946533203125
826	0.3857421875	26.518971933046	-0.00426055908203125	0.386444091796875
827	0.38330078125	26.5433719329844	-0.00429840087890625	0.384002685546875
828	0.380859375	26.5677719329228	-0.00428192138671875	0.381622314453125
829	0.37841796875	26.5921719328612	-0.00427764892578125	0.379119873046875
830	0.3759765625	26.6165719327996	-0.00430633544921875	0.37677001953125
831	0.37353515625	26.640971932738	-0.00425933837890625	0.374298095703125
832	0.37109375	26.6653719326764	-0.0043206787109375	0.3719482421875
833	0.36865234375	26.6897719326148	-0.00425201416015625	0.369384765625
834	0.3662109375	26.7141719325532	-0.00432098388671875	0.36700439453125
835	0.36376953125	26.7385719324916	-0.00426055908203125	0.364471435546875
836	0.361328125	26.76297193243	-0.00430908203125	0.362091064453125
837	0.35888671875	26.7873719323684	-0.0042816162109375	0.359649658203125
838	0.3564453125	26.8117719323068	-0.00428863525390625	0.357177734375
839	0.35400390625	26.8361719322452	-0.00430572509765625	0.354827880859375
840	0.3515625	26.8605719321836	-0.0042681884765625	0.352264404296875
841	0.34912109375	26.884971932122	-0.0043231201171875	0.349945068359375
842	0.3466796875	26.9093719320604	-0.00425811767578125	0.347412109375
843	0.34423828125	26.9337719319988	-0.0043280029296875	0.345062255859375
844	0.341796875	26.9581719319372	-0.00426177978515625	0.342529296875
845	0.33935546875	26.9825719318756	-0.00431640625	0.340057373046875
846	0.3369140625	27.006971931814	-0.0042791748046875	0.337646484375
847	0.33447265625	27.0313719317523	-0.00429718017578125	0.335205078125
848	0.33203125	27.0557719316907	-0.00430267333984375	0.332794189453125
849	0.32958984375	27.0801719316291	-0.00427459716796875	0.33026123046875
850	0.3271484375	27.1045719315675	-0.0043218994140625	0.327972412109375
851	0.32470703125	27.1289719315059	-0.00426239013671875	0.325439453125
852	0.322265625	27.1533719314443	-0.00433074951171875	0.323089599609375
853	0.31982421875	27.1777719313827	-0.0042620849609375	0.320526123046875
854	0.3173828125	27.2021719313211	-0.00432281494140625	0.318115234375
855	0.31494140625	27.2265719312595	-0.0042767333984375	0.31573486328125
856	0.3125	27.2509719311979	-0.004305419921875	0.313232421875
857	0.31005859375	27.2753719311363	-0.0042999267578125	0.310821533203125
858	0.3076171875	27.2997719310747	-0.0042828369140625	0.30828857421875
859	0.30517578125	27.3241719310131	-0.00432098388671875	0.30596923828125
860	0.302734375	27.3485719309515	-0.004266357421875	0.303436279296875
861	0.30029296875	27.3729719308899	-0.0043310546875	0.30108642578125
862	0.2978515625	27.3973719308283	-0.0042608642578125	0.298675537109375
863	0.29541015625	27.4217719307667	-0.0043255615234375	0.296173095703125
864	0.29296875	27.4461719307051	-0.00427215576171875	0.293701171875
865	0.29052734375	27.4705719306435	-0.004310302734375	0.29132080078125
866	0.2880859375	27.4949719305819	-0.0042938232421875	0.2889404296875
867	0.28564453125	27.5193719305203	-0.004288330078125	0.286376953125
868	0.283203125	27.5437719304587	-0.00431640625	0.284027099609375
869	0.28076171875	27.5681719303971	-0.00426971435546875	0.281494140625
870	0.2783203125	27.5925719303355	-0.00433135986328125	0.279083251953125
871	0.27587890625	27.6169719302738	-0.00426239013671875	0.276580810546875
872	0.2734375	27.6413719302122	-0.00433135986328125	0.274169921875
873	0.27099609375	27.6657719301506	-0.00427093505859375	0.271728515625
874	0.2685546875	27.690171930089	-0.004317626953125	0.269287109375
875	0.26611328125	27.7145719300274	-0.00429046630859375	0.266845703125
876	0.263671875	27.7389719299658	-0.0042962646484375	0.264404296875
877	0.26123046875	27.7633719299042	-0.00431427001953125	0.2620849609375
878	0.2587890625	27.7877719298426	-0.0042779541015625	0.259521484375
879	0.25634765625	27.812171929781	-0.0043328857421875	0.2572021484375
880	0.25390625	27.8365719297194	-0.00426727294921875	0.254638671875
881	0.25146484375	27.8609719296578	-0.0043365478515625	0.252288818359375
882	0.2490234375	27.8853719295962	-0.00427215576171875	0.249755859375
883	0.24658203125	27.9097719295346	-0.00432708740234375	0.247406005859375
884	0.244140625	27.934171929473	-0.00428955078125	0.24493408203125
885	0.24169921875	27.9585719294114	-0.004306640625	0.242431640625
886	0.2392578125	27.9829719293498	-0.00431396484375	0.240081787109375
887	0.23681640625	28.0073719292882	-0.004287109375	0.237548828125
888	0.234375	28.0317719292266	-0.00433441162109375	0.2352294921875
889	0.23193359375	28.056171929165	-0.0042730712890625	0.232696533203125
890	0.2294921875	28.0805719291034	-0.0043414306640625	0.230316162109375
891	0.22705078125	28.1049719290418	-0.00427398681640625	0.227783203125
892	0.224609375	28.1293719289802	-0.00433502197265625	0.225433349609375
893	0.22216796875	28.1537719289186	-0.00428955078125	0.222991943359375
894	0.2197265625	28.178171928857	-0.00431671142578125	0.220489501953125
895	0.21728515625	28.2025719287954	-0.004312744140625	0.218109130859375
896	0.21484375	28.2269719287337	-0.004295654296875	0.215545654296875
897	0.21240234375	28.2513719286721	-0.004334716796875	0.2132568359375
898	0.2099609375	28.2757719286105	-0.0042803955078125	0.210723876953125
899	0.20751953125	28.3001719285489	-0.00434600830078125	0.2083740234375
900	0.205078125	28.3245719284873	-0.004278564453125	0.205810546875
901	0.20263671875	28.3489719284257	-0.0043438720703125	0.203460693359375
902	0.2001953125	28.3733719283641	-0.00429046630859375	0.201019287109375
903	0.19775390625	28.3977719283025	-0.0043280029296875	0.1986083984375
904	0.1953125	28.4221719282409	-0.00431243896484375	0.19610595703125
905	0.19287109375	28.4465719281793	-0.0043072509765625	0.193603515625
906	0.1904296875	28.4709719281177	-0.0043359375	0.191314697265625
907	0.18798828125	28.4953719280561	-0.0042889404296875	0.188720703125
908	0.185546875	28.5197719279945	-0.0043499755859375	0.186492919921875
909	0.18310546875	28.5441719279329	-0.004283447265625	0.18389892578125
910	0.1806640625	28.5685719278713	-0.0043505859375	0.181549072265625
911	0.17822265625	28.5929719278097	-0.00429046630859375	0.1790771484375
912	0.17578125	28.6173719277481	-0.00433624267578125	0.17657470703125
913	0.17333984375	28.6417719276865	-0.0043109130859375	0.1741943359375
914	0.1708984375	28.6661719276249	-0.0043157958984375	0.17169189453125
915	0.16845703125	28.6905719275633	-0.004334716796875	0.169281005859375
916	0.166015625	28.7149719275017	-0.0042962646484375	0.166778564453125
917	0.16357421875	28.7393719274401	-0.00435089111328125	0.164459228515625
918	0.1611328125	28.7637719273785	-0.00428680419921875	0.161834716796875
919	0.15869140625	28.7881719273169	-0.00435546875	0.1595458984375
920	0.15625	28.8125719272552	-0.004290771484375	0.157073974609375
921	0.15380859375	28.8369719271936	-0.004344482421875	0.154632568359375
922	0.1513671875	28.861371927132	-0.00430938720703125	0.1522216796875
923	0.14892578125	28.8857719270704	-0.0043255615234375	0.14971923828125
924	0.146484375	28.9101719270088	-0.00433258056640625	0.1473388671875
925	0.14404296875	28.9345719269472	-0.0043035888671875	0.144805908203125
926	0.1416015625	28.9589719268856	-0.0043511962890625	0.14251708984375
927	0.13916015625	28.983371926824	-0.004290771484375	0.139984130859375
928	0.13671875	29.0077719267624	-0.00435821533203125	0.137603759765625
929	0.13427734375	29.0321719267008	-0.00429107666015625	0.13507080078125
930	0.1318359375	29.0565719266392	-0.004349365234375	0.13262939453125
931	0.12939453125	29.0809719265776	-0.004305419921875	0.1302490234375
932	0.126953125	29.105371926516	-0.0043310546875	0.127777099609375
933	0.12451171875	29.1297719264544	-0.00432769775390625	0.125396728515625
934	0.1220703125	29.1541719263928	-0.00430877685546875	0.122833251953125
935	0.11962890625	29.1785719263312	-0.00434906005859375	0.120513916015625
936	0.1171875	29.2029719262696	-0.00429412841796875	0.11798095703125
937	0.11474609375	29.227371926208	-0.00435943603515625	0.11566162109375
938	0.1123046875	29.2517719261464	-0.0042913818359375	0.11309814453125
939	0.10986328125	29.2761719260848	-0.004354248046875	0.1107177734375
940	0.107421875	29.3005719260232	-0.00430206298828125	0.1082763671875
941	0.10498046875	29.3249719259616	-0.004337158203125	0.10577392578125
942	0.1025390625	29.3493719259	-0.00432342529296875	0.103424072265625
943	0.10009765625	29.3737719258384	-0.00431488037109375	0.1009521484375
944	0.09765625	29.3981719257768	-0.0043450927734375	0.0985107421875
945	0.09521484375	29.4225719257151	-0.00429718017578125	0.096038818359375
946	0.0927734375	29.4469719256535	-0.00435821533203125	0.093658447265625
947	0.09033203125	29.4713719255919	-0.0042901611328125	0.09112548828125
948	0.087890625	29.4957719255303	-0.00435638427734375	0.0887451171875
949	0.08544921875	29.5201719254687	-0.00429901123046875	0.086273193359375
950	0.0830078125	29.5445719254071	-0.00434326171875	0.083831787109375
951	0.08056640625	29.5689719253455	-0.004320068359375	0.081451416015625
952	0.078125	29.5933719252839	-0.004322509765625	0.07891845703125
953	0.07568359375	29.6177719252223	-0.00434295654296875	0.076568603515625
954	0.0732421875	29.6421719251607	-0.00430419921875	0.074005126953125
955	0.07080078125	29.6665719250991	-0.0043603515625	0.071746826171875
956	0.068359375	29.6909719250375	-0.00429473876953125	0.0692138671875
957	0.06591796875	29.7153719249759	-0.0043634033203125	0.066802978515625
958	0.0634765625	29.7397719249143	-0.0043011474609375	0.0643310546875
959	0.06103515625	29.7641719248527	-0.00435272216796875	0.061920166015625
960	0.05859375	29.7885719247911	-0.00431976318359375	0.0594482421875
961	0.05615234375	29.8129719247295	-0.0043328857421875	0.0570068359375
962	0.0537109375	29.8373719246679	-0.0043438720703125	0.05462646484375
963	0.05126953125	29.8617719246063	-0.00431427001953125	0.05206298828125
964	0.048828125	29.8861719245447	-0.00436370849609375	0.049774169921875
965	0.04638671875	29.9105719244831	-0.004302978515625	0.0465789794921875
966	0.0439453125	29.9349719244215	-0.00436981201171875	0.0442352294921875
967	0.04150390625	29.9593719243599	-0.00430511474609375	0.04168701171875
968	0.0390625	29.9837719242983	-0.00436309814453125	0.039300537109375
969	0.03662109375	30.0081719242366	-0.00431976318359375	0.036822509765625
970	0.0341796875	30.032571924175	-0.00434417724609375	0.0343780517578125
971	0.03173828125	30.0569719241134	-0.00434295654296875	0.031976318359375
972	0.029296875	30.0813719240518	-0.0043243408203125	0.02947998046875
973	0.02685546875	30.1057719239902	-0.0043646240234375	0.027117919921875
974	0.0244140625	30.1301719239286	-0.00430908203125	0.024603271484375
975	0.02197265625	30.154571923867	-0.00437408447265625	0.02225341796875
976	0.01953125	30.1789719238054	-0.00430694580078125	0.019708251953125
977	0.01708984375	30.2033719237438	-0.0043695068359375	0.01734619140625
978	0.0146484375	30.2277719236822	-0.0043194580078125	0.0148590087890625
979	0.01220703125	30.2521719236206	-0.00435302734375	0.0124237060546875
980	0.009765625	30.276571923559	-0.00434173583984375	0.0099945068359375
981	0.00732421875	30.3009719234974	-0.004332275390625	0.007525634765625
982	0.0048828125	30.3253719234358	-0.0043634033203125	0.00516357421874999
983	0.00244140625	30.3497719233742	-0.00431396484375	0.0026092529296875
984	0	30.3741719233126	-0.00437530517578125	0.000271606445312503
985	0.00244140625	30.398571923251	-0.00430633544921875	0.00263366699218751
986	0.0048828125	30.4229719231894	-0.00436981201171875	0.00513916015625
