Index	Potential applied (V)	Time (s)	WE(1).Current (A)	WE(1).Potential (V)
1	0.00244140625	288.827122270782	-2.9241943359375E-05	0.002593994140625
2	0.0048828125	288.85152227072	-2.8497314453125E-05	0.00504455566406251
3	0.00732421875	288.875922270658	-2.90191650390625E-05	0.00745849609375
4	0.009765625	288.900322270597	-2.86468505859375E-05	0.00990905761718749
5	0.01220703125	288.924722270535	-2.86773681640625E-05	0.01236572265625
6	0.0146484375	288.949122270474	-2.86773681640625E-05	0.014813232421875
7	0.01708984375	288.973522270412	-2.8387451171875E-05	0.0172332763671875
8	0.01953125	288.99792227035	-2.88421630859375E-05	0.019683837890625
9	0.02197265625	289.022322270289	-2.81463623046875E-05	0.0221221923828125
10	0.0244140625	289.046722270227	-2.86773681640625E-05	0.0245697021484375
11	0.02685546875	289.071122270166	-2.79266357421875E-05	0.0270263671875
12	0.029296875	289.095522270104	-2.843017578125E-05	0.029437255859375
13	0.03173828125	289.119922270042	-2.80364990234375E-05	0.0318817138671875
14	0.0341796875	289.144322269981	-2.802734375E-05	0.0343170166015625
15	0.03662109375	289.168722269919	-2.79998779296875E-05	0.0367706298828125
16	0.0390625	289.193122269858	-2.76458740234375E-05	0.0392181396484375
17	0.04150390625	289.217522269796	-2.8057861328125E-05	0.0416656494140625
18	0.0439453125	289.241922269734	-2.73345947265625E-05	0.0440948486328125
19	0.04638671875	289.266322269673	-2.78289794921875E-05	0.0465423583984375
20	0.048828125	289.290722269611	-2.7044677734375E-05	0.048968505859375
21	0.05126953125	289.31512226955	-2.74932861328125E-05	0.051361083984375
22	0.0537109375	289.339522269488	-2.70843505859375E-05	0.053802490234375
23	0.05615234375	289.363922269426	-2.70599365234375E-05	0.056243896484375
24	0.05859375	289.388322269365	-2.70477294921875E-05	0.0587158203125
25	0.06103515625	289.412722269303	-2.6702880859375E-05	0.0611572265625
26	0.0634765625	289.437122269242	-2.71331787109375E-05	0.063568115234375
27	0.06591796875	289.46152226918	-2.63946533203125E-05	0.066009521484375
28	0.068359375	289.485922269118	-2.6873779296875E-05	0.0684814453125
29	0.07080078125	289.510322269057	-2.611083984375E-05	0.07086181640625
30	0.0732421875	289.534722268995	-2.6617431640625E-05	0.07330322265625
31	0.07568359375	289.559122268933	-2.62298583984375E-05	0.07574462890625
32	0.078125	289.583522268872	-2.62176513671875E-05	0.07818603515625
33	0.08056640625	289.60792226881	-2.6226806640625E-05	0.080657958984375
34	0.0830078125	289.632322268749	-2.5885009765625E-05	0.083099365234375
35	0.08544921875	289.656722268687	-2.63519287109375E-05	0.0855712890625
36	0.087890625	289.681122268625	-2.5640869140625E-05	0.087982177734375
37	0.09033203125	289.705522268564	-2.61749267578125E-05	0.090423583984375
38	0.0927734375	289.729922268502	-2.53997802734375E-05	0.092864990234375
39	0.09521484375	289.754322268441	-2.58880615234375E-05	0.095306396484375
40	0.09765625	289.778722268379	-2.552490234375E-05	0.097747802734375
41	0.10009765625	289.803122268317	-2.552490234375E-05	0.100189208984375
42	0.1025390625	289.827522268256	-2.5506591796875E-05	0.102630615234375
43	0.10498046875	289.851922268194	-2.51922607421875E-05	0.105072021484375
44	0.107421875	289.876322268133	-2.56500244140625E-05	0.107513427734375
45	0.10986328125	289.900722268071	-2.49114990234375E-05	0.109954833984375
46	0.1123046875	289.925122268009	-2.53997802734375E-05	0.1123046875
47	0.11474609375	289.949522267948	-2.4652099609375E-05	0.114837646484375
48	0.1171875	289.973922267886	-2.5115966796875E-05	0.11724853515625
49	0.11962890625	289.998322267825	-2.47344970703125E-05	0.119720458984375
50	0.1220703125	290.022722267763	-2.4676513671875E-05	0.122161865234375
51	0.12451171875	290.047122267701	-2.46734619140625E-05	0.124603271484375
52	0.126953125	290.07152226764	-2.42706298828125E-05	0.1270751953125
53	0.12939453125	290.095922267578	-2.4664306640625E-05	0.1295166015625
54	0.1318359375	290.120322267517	-2.3907470703125E-05	0.131927490234375
55	0.13427734375	290.144722267455	-2.43316650390625E-05	0.134307861328125
56	0.13671875	290.169122267393	-2.36297607421875E-05	0.136810302734375
57	0.13916015625	290.193522267332	-2.4017333984375E-05	0.139251708984375
58	0.1416015625	290.21792226727	-2.366943359375E-05	0.141693115234375
59	0.14404296875	290.242322267209	-2.35992431640625E-05	0.144134521484375
60	0.146484375	290.266722267147	-2.35504150390625E-05	0.146575927734375
61	0.14892578125	290.291122267085	-2.31689453125E-05	0.14898681640625
62	0.1513671875	290.315522267024	-2.35992431640625E-05	0.15142822265625
63	0.15380859375	290.339922266962	-2.28973388671875E-05	0.153900146484375
64	0.15625	290.364322266901	-2.3291015625E-05	0.156341552734375
65	0.15869140625	290.388722266839	-2.25341796875E-05	0.158782958984375
66	0.1611328125	290.413122266777	-2.310791015625E-05	0.161224365234375
67	0.16357421875	290.437522266716	-2.27935791015625E-05	0.16363525390625
68	0.166015625	290.461922266654	-2.27142333984375E-05	0.166046142578125
69	0.16845703125	290.486322266593	-2.27142333984375E-05	0.16845703125
70	0.1708984375	290.510722266531	-2.24090576171875E-05	0.170928955078125
71	0.17333984375	290.535122266469	-2.28668212890625E-05	0.173431396484375
72	0.17578125	290.559522266408	-2.2137451171875E-05	0.175811767578125
73	0.17822265625	290.583922266346	-2.25738525390625E-05	0.178314208984375
74	0.1806640625	290.608322266285	-2.19696044921875E-05	0.18072509765625
75	0.18310546875	290.632722266223	-2.2344970703125E-05	0.18316650390625
76	0.185546875	290.657122266161	-2.2021484375E-05	0.18560791015625
77	0.18798828125	290.6815222661	-2.18963623046875E-05	0.18804931640625
78	0.1904296875	290.705922266038	-2.1929931640625E-05	0.190521240234375
79	0.19287109375	290.730322265976	-2.149658203125E-05	0.19287109375
80	0.1953125	290.754722265915	-2.1923828125E-05	0.19537353515625
81	0.19775390625	290.779122265853	-2.12615966796875E-05	0.197784423828125
82	0.2001953125	290.803522265792	-2.16094970703125E-05	0.20025634765625
83	0.20263671875	290.82792226573	-2.086181640625E-05	0.202728271484375
84	0.205078125	290.852322265668	-2.12646484375E-05	0.205108642578125
85	0.20751953125	290.876722265607	-2.09564208984375E-05	0.207550048828125
86	0.2099609375	290.901122265545	-2.08251953125E-05	0.21002197265625
87	0.21240234375	290.925522265484	-2.081298828125E-05	0.212493896484375
88	0.21484375	290.949922265422	-2.03125E-05	0.21484375
89	0.21728515625	290.97432226536	-2.0745849609375E-05	0.217315673828125
90	0.2197265625	290.998722265299	-2.00439453125E-05	0.219818115234375
91	0.22216796875	291.023122265237	-2.05230712890625E-05	0.22222900390625
92	0.224609375	291.047522265176	-1.9775390625E-05	0.22467041015625
93	0.22705078125	291.071922265114	-2.00714111328125E-05	0.2271728515625
94	0.2294921875	291.096322265052	-1.9854736328125E-05	0.229522705078125
95	0.23193359375	291.120722264991	-1.97967529296875E-05	0.23199462890625
96	0.234375	291.145122264929	-1.978759765625E-05	0.234405517578125
97	0.23681640625	291.169522264868	-1.93939208984375E-05	0.236846923828125
98	0.2392578125	291.193922264806	-1.9842529296875E-05	0.2392578125
99	0.24169921875	291.218322264744	-1.90460205078125E-05	0.241729736328125
100	0.244140625	291.242722264683	-1.96075439453125E-05	0.244232177734375
101	0.24658203125	291.267122264621	-1.8896484375E-05	0.246673583984375
102	0.2490234375	291.29152226456	-1.9329833984375E-05	0.24908447265625
103	0.25146484375	291.315922264498	-1.89361572265625E-05	0.25146484375
104	0.25390625	291.340322264436	-1.88995361328125E-05	0.253936767578125
105	0.25634765625	291.364722264375	-1.8951416015625E-05	0.256378173828125
106	0.2587890625	291.389122264313	-1.85302734375E-05	0.258819580078125
107	0.26123046875	291.413522264252	-1.90673828125E-05	0.26123046875
108	0.263671875	291.43792226419	-1.83380126953125E-05	0.263702392578125
109	0.26611328125	291.462322264128	-1.873779296875E-05	0.26611328125
110	0.2685546875	291.486722264067	-1.80755615234375E-05	0.268585205078125
111	0.27099609375	291.511122264005	-1.84661865234375E-05	0.271026611328125
112	0.2734375	291.535522263944	-1.81671142578125E-05	0.27349853515625
113	0.27587890625	291.559922263882	-1.79595947265625E-05	0.275848388671875
114	0.2783203125	291.58432226382	-1.80145263671875E-05	0.278350830078125
115	0.28076171875	291.608722263759	-1.7620849609375E-05	0.280853271484375
116	0.283203125	291.633122263697	-1.7950439453125E-05	0.283233642578125
117	0.28564453125	291.657522263636	-1.71112060546875E-05	0.28564453125
118	0.2880859375	291.681922263574	-1.7498779296875E-05	0.2880859375
119	0.29052734375	291.706322263512	-1.68212890625E-05	0.29058837890625
120	0.29296875	291.730722263451	-1.7181396484375E-05	0.292999267578125
121	0.29541015625	291.755122263389	-1.680908203125E-05	0.295379638671875
122	0.2978515625	291.779522263328	-1.66961669921875E-05	0.297882080078125
123	0.30029296875	291.803922263266	-1.6717529296875E-05	0.30035400390625
124	0.302734375	291.828322263204	-1.6156005859375E-05	0.302734375
125	0.30517578125	291.852722263143	-1.66900634765625E-05	0.305206298828125
126	0.3076171875	291.877122263081	-1.58599853515625E-05	0.3076171875
127	0.31005859375	291.90152226302	-1.6229248046875E-05	0.310089111328125
128	0.3125	291.925922262958	-1.55120849609375E-05	0.312530517578125
129	0.31494140625	291.950322262896	-1.58477783203125E-05	0.314971923828125
130	0.3173828125	291.974722262835	-1.55853271484375E-05	0.31744384765625
131	0.31982421875	291.999122262773	-1.54998779296875E-05	0.319854736328125
132	0.322265625	292.023522262711	-1.5521240234375E-05	0.32232666015625
133	0.32470703125	292.04792226265	-1.4990234375E-05	0.32476806640625
134	0.3271484375	292.072322262588	-1.55487060546875E-05	0.327178955078125
135	0.32958984375	292.096722262527	-1.46942138671875E-05	0.329620361328125
136	0.33203125	292.121122262465	-1.50390625E-05	0.332000732421875
137	0.33447265625	292.145522262403	-1.4263916015625E-05	0.334503173828125
138	0.3369140625	292.169922262342	-1.4599609375E-05	0.3369140625
139	0.33935546875	292.19432226228	-1.44073486328125E-05	0.33941650390625
140	0.341796875	292.218722262219	-1.4202880859375E-05	0.341827392578125
141	0.34423828125	292.243122262157	-1.42974853515625E-05	0.34423828125
142	0.3466796875	292.267522262095	-1.36505126953125E-05	0.346710205078125
143	0.34912109375	292.291922262034	-1.41204833984375E-05	0.34912109375
144	0.3515625	292.316322261972	-1.32415771484375E-05	0.351593017578125
145	0.35400390625	292.340722261911	-1.37542724609375E-05	0.354095458984375
146	0.3564453125	292.365122261849	-1.2939453125E-05	0.35650634765625
147	0.35888671875	292.389522261787	-1.322021484375E-05	0.35894775390625
148	0.361328125	292.413922261726	-1.28082275390625E-05	0.361328125
149	0.36376953125	292.438322261664	-1.25885009765625E-05	0.36376953125
150	0.3662109375	292.462722261603	-1.25274658203125E-05	0.36627197265625
151	0.36865234375	292.487122261541	-1.195068359375E-05	0.36865234375
152	0.37109375	292.511522261479	-1.23291015625E-05	0.37109375
153	0.37353515625	292.535922261418	-1.13983154296875E-05	0.373504638671875
154	0.3759765625	292.560322261356	-1.185302734375E-05	0.376007080078125
155	0.37841796875	292.584722261295	-1.08612060546875E-05	0.378448486328125
156	0.380859375	292.609122261233	-1.10260009765625E-05	0.380889892578125
157	0.38330078125	292.633522261171	-1.06231689453125E-05	0.38330078125
158	0.3857421875	292.65792226111	-1.0357666015625E-05	0.385711669921875
159	0.38818359375	292.682322261048	-1.02508544921875E-05	0.388214111328125
160	0.390625	292.706722260987	-9.6923828125E-06	0.390625
161	0.39306640625	292.731122260925	-1.0198974609375E-05	0.393096923828125
162	0.3955078125	292.755522260863	-9.332275390625E-06	0.3955078125
163	0.39794921875	292.779922260802	-9.6466064453125E-06	0.397918701171875
164	0.400390625	292.80432226074	-8.89892578125E-06	0.400360107421875
165	0.40283203125	292.828722260679	-9.0850830078125E-06	0.402862548828125
166	0.4052734375	292.853122260617	-8.8531494140625E-06	0.405303955078125
167	0.40771484375	292.877522260555	-8.5540771484375E-06	0.40777587890625
168	0.41015625	292.901922260494	-8.563232421875E-06	0.410247802734375
169	0.41259765625	292.926322260432	-7.879638671875E-06	0.412628173828125
170	0.4150390625	292.950722260371	-8.1878662109375E-06	0.415130615234375
171	0.41748046875	292.975122260309	-7.196044921875E-06	0.41754150390625
172	0.419921875	292.999522260247	-7.330322265625E-06	0.419952392578125
173	0.42236328125	293.023922260186	-6.6802978515625E-06	0.42242431640625
174	0.4248046875	293.048322260124	-6.7352294921875E-06	0.4248046875
175	0.42724609375	293.072722260063	-6.451416015625E-06	0.42730712890625
176	0.4296875	293.097122260001	-6.1309814453125E-06	0.4296875
177	0.43212890625	293.121522259939	-5.987548828125E-06	0.43212890625
178	0.4345703125	293.145922259878	-5.1666259765625E-06	0.434661865234375
179	0.43701171875	293.170322259816	-5.499267578125E-06	0.43695068359375
180	0.439453125	293.194722259754	-4.5318603515625E-06	0.439453125
181	0.44189453125	293.219122259693	-4.6722412109375E-06	0.441864013671875
182	0.4443359375	293.243522259631	-3.83270263671875E-06	0.4443359375
183	0.44677734375	293.26792225957	-3.66455078125E-06	0.44683837890625
184	0.44921875	293.292322259508	-3.1402587890625E-06	0.44927978515625
185	0.45166015625	293.316722259446	-2.6043701171875E-06	0.45166015625
186	0.4541015625	293.341122259385	-2.47467041015625E-06	0.454132080078125
187	0.45654296875	293.365522259323	-1.73248291015625E-06	0.456512451171875
188	0.458984375	293.389922259262	-1.724853515625E-06	0.458984375
189	0.46142578125	293.4143222592	-5.548095703125E-07	0.46142578125
190	0.4638671875	293.438722259138	-7.159423828125E-07	0.463836669921875
191	0.46630859375	293.463122259077	3.8970947265625E-07	0.466278076171875
192	0.46875	293.487522259015	5.23681640625E-07	0.468658447265625
193	0.47119140625	293.511922258954	1.06475830078125E-06	0.471160888671875
194	0.4736328125	293.536322258892	1.663818359375E-06	0.473541259765625
195	0.47607421875	293.56072225883	1.94854736328125E-06	0.476043701171875
196	0.478515625	293.585122258769	3.16650390625E-06	0.4783935546875
197	0.48095703125	293.609522258707	3.00537109375E-06	0.4808349609375
198	0.4833984375	293.633922258646	4.06982421875E-06	0.48333740234375
199	0.48583984375	293.658322258584	4.28466796875E-06	0.485687255859375
200	0.48828125	293.682722258522	5.38330078125E-06	0.488128662109375
201	0.49072265625	293.707122258461	5.6976318359375E-06	0.490570068359375
202	0.4931640625	293.731522258399	6.268310546875E-06	0.49298095703125
203	0.49560546875	293.755922258338	6.94580078125E-06	0.49542236328125
204	0.498046875	293.780322258276	7.2723388671875E-06	0.49786376953125
205	0.50048828125	293.804722258214	8.3587646484375E-06	0.50030517578125
206	0.5029296875	293.829122258153	8.349609375E-06	0.502685546875
207	0.50537109375	293.853522258091	9.9700927734375E-06	0.50518798828125
208	0.5078125	293.87792225803	1.0198974609375E-05	0.50762939453125
209	0.51025390625	293.902322257968	1.15142822265625E-05	0.509979248046875
210	0.5126953125	293.926722257906	1.1968994140625E-05	0.512451171875
211	0.51513671875	293.951122257845	1.28448486328125E-05	0.514862060546875
212	0.517578125	293.975522257783	1.36871337890625E-05	0.517242431640625
213	0.52001953125	293.999922257722	1.43157958984375E-05	0.519683837890625
214	0.5224609375	294.02432225766	1.5631103515625E-05	0.5220947265625
215	0.52490234375	294.048722257598	1.602783203125E-05	0.52447509765625
216	0.52734375	294.073122257537	1.75201416015625E-05	0.5269775390625
217	0.52978515625	294.097522257475	1.8060302734375E-05	0.529327392578125
218	0.5322265625	294.121922257414	1.9561767578125E-05	0.531768798828125
219	0.53466796875	294.146322257352	2.032470703125E-05	0.534149169921875
220	0.537109375	294.17072225729	2.1282958984375E-05	0.53662109375
221	0.53955078125	294.195122257229	2.2625732421875E-05	0.5390625
222	0.5419921875	294.219522257167	2.35382080078125E-05	0.54150390625
223	0.54443359375	294.243922257106	2.52105712890625E-05	0.543792724609375
224	0.546875	294.268322257044	2.5726318359375E-05	0.5462646484375
225	0.54931640625	294.292722256982	2.7691650390625E-05	0.54864501953125
226	0.5517578125	294.317122256921	2.85614013671875E-05	0.55108642578125
227	0.55419921875	294.341522256859	3.02581787109375E-05	0.553497314453125
228	0.556640625	294.365922256797	3.133544921875E-05	0.556488037109375
229	0.55908203125	294.390322256736	3.271484375E-05	0.55889892578125
230	0.5615234375	294.414722256674	3.44512939453125E-05	0.561370849609375
231	0.56396484375	294.439122256613	3.5797119140625E-05	0.5638427734375
232	0.56640625	294.463522256551	3.780517578125E-05	0.566253662109375
233	0.56884765625	294.487922256489	3.868408203125E-05	0.5687255859375
234	0.5712890625	294.512322256428	4.08538818359375E-05	0.571044921875
235	0.57373046875	294.536722256366	4.20745849609375E-05	0.5736083984375
236	0.576171875	294.561122256305	4.41680908203125E-05	0.5760498046875
237	0.57861328125	294.585522256243	4.5709228515625E-05	0.57843017578125
238	0.5810546875	294.609922256181	4.74365234375E-05	0.580902099609375
239	0.58349609375	294.63432225612	4.96826171875E-05	0.58331298828125
240	0.5859375	294.658722256058	5.1361083984375E-05	0.58575439453125
241	0.58837890625	294.683122255997	5.401611328125E-05	0.58819580078125
242	0.5908203125	294.707522255935	5.5450439453125E-05	0.590667724609375
243	0.59326171875	294.731922255873	5.8380126953125E-05	0.59307861328125
244	0.595703125	294.756322255812	6.0333251953125E-05	0.595611572265625
245	0.59814453125	294.78072225575	6.304931640625E-05	0.597869873046875
246	0.6005859375	294.805122255689	6.500244140625E-05	0.600341796875
247	0.60302734375	294.829522255627	6.756591796875E-05	0.602752685546875
248	0.60546875	294.853922255565	7.0465087890625E-05	0.605255126953125
249	0.60791015625	294.878322255504	7.28759765625E-05	0.60772705078125
250	0.6103515625	294.902722255442	7.6416015625E-05	0.610107421875
251	0.61279296875	294.927122255381	7.8460693359375E-05	0.612579345703125
252	0.615234375	294.951522255319	8.1939697265625E-05	0.615020751953125
253	0.61767578125	294.975922255257	8.477783203125E-05	0.617462158203125
254	0.6201171875	295.000322255196	8.85009765625E-05	0.61993408203125
255	0.62255859375	295.024722255134	9.1949462890625E-05	0.622344970703125
256	0.625	295.049122255073	9.4635009765625E-05	0.624725341796875
257	0.62744140625	295.073522255011	9.918212890625E-05	0.627166748046875
258	0.6298828125	295.097922254949	0.00010247802734375	0.629547119140625
259	0.63232421875	295.122322254888	0.000106842041015625	0.632049560546875
260	0.634765625	295.146722254826	0.0001103515625	0.634490966796875
261	0.63720703125	295.171122254765	0.000115020751953125	0.636871337890625
262	0.6396484375	295.195522254703	0.00011895751953125	0.639373779296875
263	0.64208984375	295.219922254641	0.0001240234375	0.641754150390625
264	0.64453125	295.24432225458	0.000128753662109375	0.64422607421875
265	0.64697265625	295.268722254518	0.00013348388671875	0.646636962890625
266	0.6494140625	295.293122254457	0.000138885498046875	0.6490478515625
267	0.65185546875	295.317522254395	0.000143951416015625	0.651458740234375
268	0.654296875	295.341922254333	0.0001497802734375	0.65386962890625
269	0.65673828125	295.366322254272	0.00015484619140625	0.656280517578125
270	0.6591796875	295.39072225421	0.000161163330078125	0.65875244140625
271	0.66162109375	295.415122254149	0.000166961669921875	0.66119384765625
272	0.6640625	295.439522254087	0.00017364501953125	0.663543701171875
273	0.66650390625	295.463922254025	0.000179779052734375	0.666046142578125
274	0.6689453125	295.488322253964	0.000186676025390625	0.66839599609375
275	0.67138671875	295.512722253902	0.000193756103515625	0.67083740234375
276	0.673828125	295.53712225384	0.00020062255859375	0.673309326171875
277	0.67626953125	295.561522253779	0.0002088623046875	0.675628662109375
278	0.6787109375	295.585922253717	0.000216339111328125	0.678070068359375
279	0.68115234375	295.610322253656	0.000225189208984375	0.68048095703125
280	0.68359375	295.634722253594	0.00023333740234375	0.682952880859375
281	0.68603515625	295.659122253532	0.0002425537109375	0.685394287109375
282	0.6884765625	295.683522253471	0.000251190185546875	0.687774658203125
283	0.69091796875	295.707922253409	0.000260223388671875	0.690185546875
284	0.693359375	295.732322253348	0.000270111083984375	0.69256591796875
285	0.69580078125	295.756722253286	0.000280120849609375	0.695037841796875
286	0.6982421875	295.781122253224	0.000290924072265625	0.697418212890625
287	0.70068359375	295.805522253163	0.00030096435546875	0.699798583984375
288	0.703125	295.829922253101	0.000312469482421875	0.702972412109375
289	0.70556640625	295.85432225304	0.00032415771484375	0.70538330078125
290	0.7080078125	295.878722252978	0.000336212158203125	0.707733154296875
291	0.71044921875	295.903122252916	0.0003480224609375	0.7103271484375
292	0.712890625	295.927522252855	0.000361175537109375	0.712646484375
293	0.71533203125	295.951922252793	0.000374420166015625	0.715087890625
294	0.7177734375	295.976322252732	0.000387908935546875	0.717559814453125
295	0.72021484375	296.00072225267	0.00040216064453125	0.719970703125
296	0.72265625	296.025122252608	0.000416778564453125	0.722381591796875
297	0.72509765625	296.049522252547	0.000431732177734375	0.72479248046875
298	0.7275390625	296.073922252485	0.00044720458984375	0.727294921875
299	0.72998046875	296.098322252424	0.00046356201171875	0.729705810546875
300	0.732421875	296.122722252362	0.00047955322265625	0.732177734375
301	0.73486328125	296.1471222523	0.0004967041015625	0.734588623046875
302	0.7373046875	296.171522252239	0.00051483154296875	0.737030029296875
303	0.73974609375	296.195922252177	0.0005328369140625	0.739471435546875
304	0.7421875	296.220322252116	0.0005517578125	0.741851806640625
305	0.74462890625	296.244722252054	0.00057098388671875	0.74432373046875
306	0.7470703125	296.269122251992	0.00059051513671875	0.74676513671875
307	0.74951171875	296.293522251931	0.00061126708984375	0.74920654296875
308	0.751953125	296.317922251869	0.00063232421875	0.75103759765625
309	0.75439453125	296.342322251808	0.00065399169921875	0.753173828125
310	0.7568359375	296.366722251746	0.00067657470703125	0.7562255859375
311	0.75927734375	296.391122251684	0.00069854736328125	0.7586669921875
312	0.76171875	296.415522251623	0.00072235107421875	0.7611083984375
313	0.76416015625	296.439922251561	0.0007464599609375	0.7635498046875
314	0.7666015625	296.4643222515	0.00077117919921875	0.76629638671875
315	0.76904296875	296.488722251438	0.0007965087890625	0.76812744140625
316	0.771484375	296.513122251376	0.00082244873046875	0.77056884765625
317	0.77392578125	296.537522251315	0.00084991455078125	0.7733154296875
318	0.7763671875	296.561922251253	0.00087646484375	0.7757568359375
319	0.77880859375	296.586322251192	0.00090545654296875	0.77850341796875
320	0.78125	296.61072225113	0.0009332275390625	0.7806396484375
321	0.78369140625	296.635122251068	0.00096343994140625	0.782470703125
322	0.7861328125	296.659522251007	0.0009930419921875	0.7855224609375
323	0.78857421875	296.683922250945	0.0010247802734375	0.7879638671875
324	0.791015625	296.708322250883	0.001055908203125	0.79010009765625
325	0.79345703125	296.732722250822	0.0010882568359375	0.79254150390625
326	0.7958984375	296.75712225076	0.001121826171875	0.79498291015625
327	0.79833984375	296.781522250699	0.00115509033203125	0.79742431640625
328	0.80078125	296.805922250637	0.001190185546875	0.799560546875
329	0.80322265625	296.830322250575	0.001224365234375	0.802001953125
330	0.8056640625	296.854722250514	0.0012615966796875	0.804443359375
331	0.80810546875	296.879122250452	0.001297607421875	0.8074951171875
332	0.810546875	296.903522250391	0.0013360595703125	0.80963134765625
333	0.81298828125	296.927922250329	0.0013739013671875	0.81146240234375
334	0.8154296875	296.952322250267	0.0014129638671875	0.814208984375
335	0.81787109375	296.976722250206	0.00145355224609375	0.81695556640625
336	0.8203125	297.001122250144	0.00149322509765625	0.8197021484375
337	0.82275390625	297.025522250083	0.00153594970703125	0.821533203125
338	0.8251953125	297.049922250021	0.00157684326171875	0.8245849609375
339	0.82763671875	297.074322249959	0.00162109375	0.8270263671875
340	0.830078125	297.098722249898	0.001663818359375	0.82916259765625
341	0.83251953125	297.123122249836	0.001708984375	0.8319091796875
342	0.8349609375	297.147522249775	0.00175384521484375	0.833740234375
343	0.83740234375	297.171922249713	0.0017999267578125	0.83648681640625
344	0.83984375	297.196322249651	0.00184783935546875	0.8392333984375
345	0.84228515625	297.22072224959	0.0018939208984375	0.84197998046875
346	0.8447265625	297.245122249528	0.00194366455078125	0.843505859375
347	0.84716796875	297.269522249467	0.001990966796875	0.84625244140625
348	0.849609375	297.293922249405	0.00204193115234375	0.848388671875
349	0.85205078125	297.318322249343	0.0020916748046875	0.85113525390625
350	0.8544921875	297.342722249282	0.00214385986328125	0.8538818359375
351	0.85693359375	297.36712224922	0.00219482421875	0.85601806640625
352	0.859375	297.391522249159	0.00224822998046875	0.8587646484375
353	0.86181640625	297.415922249097	0.00230255126953125	0.8612060546875
354	0.8642578125	297.440322249035	0.00235595703125	0.86334228515625
355	0.86669921875	297.464722248974	0.00241241455078125	0.86578369140625
356	0.869140625	297.489122248912	0.0024658203125	0.86822509765625
357	0.87158203125	297.513522248851	0.00252410888671875	0.8709716796875
358	0.8740234375	297.537922248789	0.0025799560546875	0.872802734375
359	0.87646484375	297.562322248727	0.00263885498046875	0.87554931640625
360	0.87890625	297.586722248666	0.00269683837890625	0.87799072265625
361	0.88134765625	297.611122248604	0.00275604248046875	0.8807373046875
362	0.8837890625	297.635522248543	0.00281707763671875	0.88226318359375
363	0.88623046875	297.659922248481	0.0028765869140625	0.885009765625
364	0.888671875	297.684322248419	0.0029388427734375	0.887451171875
365	0.89111328125	297.708722248358	0.0029986572265625	0.889892578125
366	0.8935546875	297.733122248296	0.00306304931640625	0.89263916015625
367	0.89599609375	297.757522248235	0.00312469482421875	0.8953857421875
368	0.8984375	297.781922248173	0.00319000244140625	0.897216796875
369	0.90087890625	297.806322248111	0.0032537841796875	0.89935302734375
370	0.9033203125	297.83072224805	0.00331817626953125	0.90240478515625
371	0.90576171875	297.855122247988	0.0033843994140625	0.9051513671875
372	0.908203125	297.879522247927	0.00344818115234375	0.90728759765625
373	0.91064453125	297.903922247865	0.00351531982421875	0.90911865234375
374	0.9130859375	297.928322247803	0.0035791015625	0.9124755859375
375	0.91552734375	297.952722247742	0.00364654541015625	0.91461181640625
376	0.91796875	297.97712224768	0.00371063232421875	0.91705322265625
377	0.92041015625	298.001522247618	0.00377685546875	0.92010498046875
378	0.9228515625	298.025922247557	0.00384124755859375	0.921630859375
379	0.92529296875	298.050322247495	0.00390472412109375	0.924072265625
380	0.927734375	298.074722247434	0.0039678955078125	0.9271240234375
381	0.93017578125	298.099122247372	0.0040277099609375	0.92926025390625
382	0.9326171875	298.12352224731	0.00408905029296875	0.9320068359375
383	0.93505859375	298.147922247249	0.0041448974609375	0.9344482421875
384	0.9375	298.172322247187	0.00420318603515625	0.9368896484375
385	0.93994140625	298.196722247126	0.004256591796875	0.9393310546875
386	0.9423828125	298.221122247064	0.0043096923828125	0.94146728515625
387	0.94482421875	298.245522247002	0.00435943603515625	0.94390869140625
388	0.947265625	298.269922246941	0.00440704345703125	0.946044921875
389	0.94970703125	298.294322246879	0.00445404052734375	0.948486328125
390	0.9521484375	298.318722246818	0.00449737548828125	0.9515380859375
391	0.95458984375	298.343122246756	0.0045404052734375	0.95367431640625
392	0.95703125	298.367522246694	0.00457977294921875	0.955810546875
393	0.95947265625	298.391922246633	0.00461944580078125	0.958251953125
394	0.9619140625	298.416322246571	0.00465606689453125	0.96099853515625
395	0.96435546875	298.44072224651	0.00469268798828125	0.963134765625
396	0.966796875	298.465122246448	0.0047265625	0.96588134765625
397	0.96923828125	298.489522246386	0.00475982666015625	0.968017578125
398	0.9716796875	298.513922246325	0.00479217529296875	0.9710693359375
399	0.97412109375	298.538322246263	0.0048223876953125	0.97320556640625
400	0.9765625	298.562722246202	0.0048529052734375	0.975341796875
401	0.97900390625	298.58712224614	0.00488067626953125	0.977783203125
402	0.9814453125	298.611522246078	0.00490936279296875	0.9808349609375
403	0.98388671875	298.635922246017	0.0049359130859375	0.9832763671875
404	0.986328125	298.660322245955	0.004962158203125	0.98541259765625
405	0.98876953125	298.684722245894	0.00498748779296875	0.98785400390625
406	0.9912109375	298.709122245832	0.00501190185546875	0.98968505859375
407	0.99365234375	298.73352224577	0.0050360107421875	0.99273681640625
408	0.99609375	298.757922245709	0.00505889892578125	0.99517822265625
409	0.99853515625	298.782322245647	0.00508209228515625	0.997314453125
410	1.0009765625	298.806722245586	0.005103759765625	1.00006103515625
411	1.00341796875	298.831122245524	0.005125732421875	1.0028076171875
412	1.005859375	298.855522245462	0.00514617919921875	1.00494384765625
413	1.00830078125	298.879922245401	0.00516693115234375	1.0076904296875
414	1.0107421875	298.904322245339	0.005186767578125	1.00921630859375
415	1.01318359375	298.928722245278	0.005206298828125	1.0125732421875
416	1.015625	298.953122245216	0.005225830078125	1.014404296875
417	1.01806640625	298.977522245154	0.00524444580078125	1.01715087890625
418	1.0205078125	299.001922245093	0.0052630615234375	1.019287109375
419	1.02294921875	299.026322245031	0.00528076171875	1.0223388671875
420	1.025390625	299.05072224497	0.0052984619140625	1.02447509765625
421	1.02783203125	299.075122244908	0.00531585693359375	1.02691650390625
422	1.0302734375	299.099522244846	0.00533294677734375	1.029052734375
423	1.03271484375	299.123922244785	0.00534942626953125	1.03179931640625
424	1.03515625	299.148322244723	0.00536590576171875	1.033935546875
425	1.03759765625	299.172722244661	0.00538238525390625	1.03668212890625
426	1.0400390625	299.1971222446	0.00539794921875	1.038818359375
427	1.04248046875	299.221522244538	0.005413818359375	1.0418701171875
428	1.044921875	299.245922244477	0.005428466796875	1.0443115234375
429	1.04736328125	299.270322244415	0.00544403076171875	1.04644775390625
430	1.0498046875	299.294722244353	0.00545867919921875	1.048583984375
431	1.05224609375	299.319122244292	0.0054736328125	1.05133056640625
432	1.0546875	299.34352224423	0.00548797607421875	1.05377197265625
433	1.05712890625	299.367922244169	0.00550201416015625	1.05621337890625
434	1.0595703125	299.392322244107	0.005516357421875	1.058349609375
435	1.06201171875	299.416722244045	0.00553009033203125	1.060791015625
436	1.064453125	299.441122243984	0.0055438232421875	1.06353759765625
437	1.06689453125	299.465522243922	0.00555694580078125	1.065673828125
438	1.0693359375	299.489922243861	0.00557037353515625	1.0687255859375
439	1.07177734375	299.514322243799	0.00558349609375	1.07086181640625
440	1.07421875	299.538722243737	0.00559661865234375	1.072998046875
441	1.07666015625	299.563122243676	0.005609130859375	1.075439453125
442	1.0791015625	299.587522243614	0.00562164306640625	1.07818603515625
443	1.08154296875	299.611922243553	0.0056341552734375	1.08062744140625
444	1.083984375	299.636322243491	0.0056463623046875	1.0833740234375
445	1.08642578125	299.660722243429	0.0056585693359375	1.085205078125
446	1.0888671875	299.685122243368	0.00567047119140625	1.08734130859375
447	1.09130859375	299.709522243306	0.00568267822265625	1.09039306640625
448	1.09375	299.733922243245	0.00569427490234375	1.09222412109375
449	1.09619140625	299.758322243183	0.00570587158203125	1.0955810546875
450	1.0986328125	299.782722243121	0.00571746826171875	1.09771728515625
451	1.10107421875	299.80712224306	0.005728759765625	1.10015869140625
452	1.103515625	299.831522242998	0.00574005126953125	1.1016845703125
453	1.10595703125	299.855922242937	0.00575103759765625	1.104736328125
454	1.1083984375	299.880322242875	0.0057623291015625	1.107177734375
455	1.11083984375	299.904722242813	0.00577301025390625	1.10931396484375
456	1.11328125	299.929122242752	0.00578369140625	1.112060546875
457	1.11572265625	299.95352224269	0.00579437255859375	1.114501953125
458	1.1181640625	299.977922242629	0.0058050537109375	1.116943359375
459	1.12060546875	300.002322242567	0.0058154296875	1.119384765625
460	1.123046875	300.026722242505	0.0058258056640625	1.12213134765625
461	1.12548828125	300.051122242444	0.005836181640625	1.1248779296875
462	1.1279296875	300.075522242382	0.00584625244140625	1.12701416015625
463	1.13037109375	300.099922242321	0.00585662841796875	1.129150390625
464	1.1328125	300.124322242259	0.00586639404296875	1.13189697265625
465	1.13525390625	300.148722242197	0.00587646484375	1.134033203125
466	1.1376953125	300.173122242136	0.00588623046875	1.13677978515625
467	1.14013671875	300.197522242074	0.00589630126953125	1.138916015625
468	1.142578125	300.221922242013	0.00590576171875	1.141357421875
469	1.14501953125	300.246322241951	0.00591552734375	1.143798828125
470	1.1474609375	300.270722241889	0.00592498779296875	1.1468505859375
471	1.14990234375	300.295122241828	0.0059344482421875	1.14898681640625
472	1.15234375	300.319522241766	0.00594390869140625	1.151123046875
473	1.15478515625	300.343922241704	0.00595306396484375	1.15386962890625
474	1.1572265625	300.368322241643	0.0059625244140625	1.156005859375
475	1.15966796875	300.392722241581	0.0059716796875	1.15814208984375
476	1.162109375	300.41712224152	0.0059808349609375	1.16119384765625
477	1.16455078125	300.441522241458	0.00598968505859375	1.16302490234375
478	1.1669921875	300.465922241396	0.00599853515625	1.16607666015625
479	1.16943359375	300.490322241335	0.0060076904296875	1.16851806640625
480	1.171875	300.514722241273	0.0060162353515625	1.170654296875
481	1.17431640625	300.539122241212	0.00602508544921875	1.1737060546875
482	1.1767578125	300.56352224115	0.006033935546875	1.1761474609375
483	1.17919921875	300.587922241088	0.00604248046875	1.17767333984375
484	1.181640625	300.612322241027	0.006051025390625	1.18011474609375
485	1.18408203125	300.636722240965	0.0060595703125	1.182861328125
486	1.1865234375	300.661122240904	0.006068115234375	1.185302734375
487	1.18896484375	300.685522240842	0.00607635498046875	1.187744140625
488	1.19140625	300.70992224078	0.00608489990234375	1.19049072265625
489	1.19384765625	300.734322240719	0.0060931396484375	1.19232177734375
490	1.1962890625	300.758722240657	0.00610137939453125	1.1956787109375
491	1.19873046875	300.783122240596	0.00610931396484375	1.19842529296875
492	1.201171875	300.807522240534	0.0061175537109375	1.199951171875
493	1.19873046875	300.831922240472	0.00610443115234375	1.197509765625
494	1.1962890625	300.856322240411	0.00609130859375	1.19476318359375
495	1.19384765625	300.880722240349	0.00607818603515625	1.19232177734375
496	1.19140625	300.905122240288	0.00606475830078125	1.190185546875
497	1.18896484375	300.929522240226	0.00605133056640625	1.18804931640625
498	1.1865234375	300.953922240164	0.00603759765625	1.18560791015625
499	1.18408203125	300.978322240103	0.00602386474609375	1.18255615234375
500	1.181640625	301.002722240041	0.00600982666015625	1.18072509765625
501	1.17919921875	301.02712223998	0.00599578857421875	1.17828369140625
502	1.1767578125	301.051522239918	0.00598175048828125	1.175537109375
503	1.17431640625	301.075922239856	0.00596710205078125	1.17340087890625
504	1.171875	301.100322239795	0.0059527587890625	1.1712646484375
505	1.16943359375	301.124722239733	0.0059381103515625	1.168212890625
506	1.1669921875	301.149122239672	0.00592315673828125	1.165771484375
507	1.16455078125	301.17352223961	0.005908203125	1.16363525390625
508	1.162109375	301.197922239548	0.0058929443359375	1.16119384765625
509	1.15966796875	301.222322239487	0.00587738037109375	1.1590576171875
510	1.1572265625	301.246722239425	0.00586212158203125	1.1566162109375
511	1.15478515625	301.271122239364	0.00584625244140625	1.1541748046875
512	1.15234375	301.295522239302	0.00583038330078125	1.15142822265625
513	1.14990234375	301.31992223924	0.00581390380859375	1.1492919921875
514	1.1474609375	301.344322239179	0.00579742431640625	1.146240234375
515	1.14501953125	301.368722239117	0.00578094482421875	1.14410400390625
516	1.142578125	301.393122239056	0.00576416015625	1.1419677734375
517	1.14013671875	301.417522238994	0.0057470703125	1.1395263671875
518	1.1376953125	301.441922238932	0.0057293701171875	1.13677978515625
519	1.13525390625	301.466322238871	0.00571197509765625	1.13372802734375
520	1.1328125	301.490722238809	0.0056939697265625	1.131591796875
521	1.13037109375	301.515122238747	0.00567596435546875	1.129150390625
522	1.1279296875	301.539522238686	0.0056573486328125	1.1273193359375
523	1.12548828125	301.563922238624	0.005638427734375	1.124267578125
524	1.123046875	301.588322238563	0.0056195068359375	1.12213134765625
525	1.12060546875	301.612722238501	0.0055999755859375	1.119384765625
526	1.1181640625	301.637122238439	0.00558013916015625	1.11724853515625
527	1.11572265625	301.661522238378	0.0055596923828125	1.114501953125
528	1.11328125	301.685922238316	0.00553924560546875	1.112060546875
529	1.11083984375	301.710322238255	0.0055181884765625	1.109619140625
530	1.1083984375	301.734722238193	0.005496826171875	1.1077880859375
531	1.10595703125	301.759122238131	0.005474853515625	1.104736328125
532	1.103515625	301.78352223807	0.00545257568359375	1.10260009765625
533	1.10107421875	301.807922238008	0.00542999267578125	1.10015869140625
534	1.0986328125	301.832322237947	0.005406494140625	1.097412109375
535	1.09619140625	301.856722237885	0.0053826904296875	1.09527587890625
536	1.09375	301.881122237823	0.00535797119140625	1.09283447265625
537	1.09130859375	301.905522237762	0.005333251953125	1.090087890625
538	1.0888671875	301.9299222377	0.00530731201171875	1.08795166015625
539	1.08642578125	301.954322237639	0.00528106689453125	1.085205078125
540	1.083984375	301.978722237577	0.00525390625	1.0833740234375
541	1.08154296875	302.003122237515	0.005225830078125	1.08062744140625
542	1.0791015625	302.027522237454	0.00519744873046875	1.0784912109375
543	1.07666015625	302.051922237392	0.00516754150390625	1.075439453125
544	1.07421875	302.076322237331	0.00513702392578125	1.072998046875
545	1.07177734375	302.100722237269	0.00510498046875	1.070556640625
546	1.0693359375	302.125122237207	0.0050726318359375	1.068115234375
547	1.06689453125	302.149522237146	0.0050384521484375	1.065673828125
548	1.064453125	302.173922237084	0.0050030517578125	1.06353759765625
549	1.06201171875	302.198322237023	0.0049664306640625	1.0614013671875
550	1.0595703125	302.222722236961	0.004927978515625	1.058349609375
551	1.05712890625	302.247122236899	0.00488861083984375	1.05621337890625
552	1.0546875	302.271522236838	0.00484619140625	1.05377197265625
553	1.05224609375	302.295922236776	0.0048028564453125	1.05072021484375
554	1.0498046875	302.320322236715	0.00475616455078125	1.048583984375
555	1.04736328125	302.344722236653	0.00470794677734375	1.04644775390625
556	1.044921875	302.369122236591	0.00465667724609375	1.043701171875
557	1.04248046875	302.39352223653	0.00460296630859375	1.0418701171875
558	1.0400390625	302.417922236468	0.00454559326171875	1.03912353515625
559	1.03759765625	302.442322236407	0.00448486328125	1.0369873046875
560	1.03515625	302.466722236345	0.00442108154296875	1.03424072265625
561	1.03271484375	302.491122236283	0.00435272216796875	1.031494140625
562	1.0302734375	302.515522236222	0.00428192138671875	1.029052734375
563	1.02783203125	302.53992223616	0.00420501708984375	1.02752685546875
564	1.025390625	302.564322236099	0.0041265869140625	1.02447509765625
565	1.02294921875	302.588722236037	0.00404449462890625	1.0223388671875
566	1.0205078125	302.613122235975	0.0039593505859375	1.019287109375
567	1.01806640625	302.637522235914	0.00387237548828125	1.0174560546875
568	1.015625	302.661922235852	0.0037835693359375	1.01470947265625
569	1.01318359375	302.68632223579	0.003695068359375	1.01226806640625
570	1.0107421875	302.710722235729	0.00360504150390625	1.00982666015625
571	1.00830078125	302.735122235667	0.00351715087890625	1.00738525390625
572	1.005859375	302.759522235606	0.0034271240234375	1.00494384765625
573	1.00341796875	302.783922235544	0.00334075927734375	1.00250244140625
574	1.0009765625	302.808322235482	0.00325408935546875	1.00006103515625
575	0.99853515625	302.832722235421	0.0031689453125	0.99761962890625
576	0.99609375	302.857122235359	0.00308502197265625	0.99517822265625
577	0.99365234375	302.881522235298	0.0030023193359375	0.99273681640625
578	0.9912109375	302.905922235236	0.00292266845703125	0.9906005859375
579	0.98876953125	302.930322235174	0.00284271240234375	0.987548828125
580	0.986328125	302.954722235113	0.0027655029296875	0.985107421875
581	0.98388671875	302.979122235051	0.0026885986328125	0.98236083984375
582	0.9814453125	303.00352223499	0.00261505126953125	0.98052978515625
583	0.97900390625	303.027922234928	0.0025421142578125	0.97808837890625
584	0.9765625	303.052322234866	0.00247100830078125	0.975341796875
585	0.97412109375	303.076722234805	0.00240142822265625	0.972900390625
586	0.9716796875	303.101122234743	0.0023333740234375	0.970458984375
587	0.96923828125	303.125522234682	0.00226776123046875	0.96832275390625
588	0.966796875	303.14992223462	0.0022027587890625	0.96527099609375
589	0.96435546875	303.174322234558	0.0021405029296875	0.9637451171875
590	0.9619140625	303.198722234497	0.00207794189453125	0.96099853515625
591	0.95947265625	303.223122234435	0.00201873779296875	0.9588623046875
592	0.95703125	303.247522234374	0.00196044921875	0.955810546875
593	0.95458984375	303.271922234312	0.0019036865234375	0.95367431640625
594	0.9521484375	303.29632223425	0.00184906005859375	0.95062255859375
595	0.94970703125	303.320722234189	0.0017950439453125	0.948486328125
596	0.947265625	303.345122234127	0.0017437744140625	0.94635009765625
597	0.94482421875	303.369522234066	0.00169342041015625	0.94390869140625
598	0.9423828125	303.393922234004	0.00164459228515625	0.9417724609375
599	0.93994140625	303.418322233942	0.00159576416015625	0.938720703125
600	0.9375	303.442722233881	0.0015496826171875	0.93658447265625
601	0.93505859375	303.467122233819	0.00150421142578125	0.93414306640625
602	0.9326171875	303.491522233758	0.001461181640625	0.9320068359375
603	0.93017578125	303.515922233696	0.0014190673828125	0.9295654296875
604	0.927734375	303.540322233634	0.001378173828125	0.926513671875
605	0.92529296875	303.564722233573	0.001339111328125	0.92498779296875
606	0.9228515625	303.589122233511	0.0013006591796875	0.921630859375
607	0.92041015625	303.61352223345	0.00126373291015625	0.9197998046875
608	0.91796875	303.637922233388	0.0012274169921875	0.9173583984375
609	0.91552734375	303.662322233326	0.00119293212890625	0.91461181640625
610	0.9130859375	303.686722233265	0.00115966796875	0.911865234375
611	0.91064453125	303.711122233203	0.00112701416015625	0.91033935546875
612	0.908203125	303.735522233142	0.0010955810546875	0.9075927734375
613	0.90576171875	303.75992223308	0.00106536865234375	0.904541015625
614	0.9033203125	303.784322233018	0.0010357666015625	0.90240478515625
615	0.90087890625	303.808722232957	0.0010076904296875	0.9002685546875
616	0.8984375	303.833122232895	0.000980224609375	0.89752197265625
617	0.89599609375	303.857522232834	0.000953369140625	0.894775390625
618	0.8935546875	303.881922232772	0.000927734375	0.89263916015625
619	0.89111328125	303.90632223271	0.0009027099609375	0.889892578125
620	0.888671875	303.930722232649	0.00087860107421875	0.88775634765625
621	0.88623046875	303.955122232587	0.00085540771484375	0.88592529296875
622	0.8837890625	303.979522232525	0.0008331298828125	0.88348388671875
623	0.88134765625	304.003922232464	0.000811767578125	0.8807373046875
624	0.87890625	304.028322232402	0.00079071044921875	0.877685546875
625	0.87646484375	304.052722232341	0.00077056884765625	0.87554931640625
626	0.8740234375	304.077122232279	0.0007513427734375	0.872802734375
627	0.87158203125	304.101522232217	0.000732421875	0.87066650390625
628	0.869140625	304.125922232156	0.00071441650390625	0.867919921875
629	0.86669921875	304.150322232094	0.0006964111328125	0.86578369140625
630	0.8642578125	304.174722232033	0.00067962646484375	0.863037109375
631	0.86181640625	304.199122231971	0.000662841796875	0.86090087890625
632	0.859375	304.223522231909	0.00064697265625	0.85845947265625
633	0.85693359375	304.247922231848	0.00063140869140625	0.8563232421875
634	0.8544921875	304.272322231786	0.0006158447265625	0.85357666015625
635	0.85205078125	304.296722231725	0.0006011962890625	0.85113525390625
636	0.849609375	304.321122231663	0.000587158203125	0.848388671875
637	0.84716796875	304.345522231601	0.00057342529296875	0.845947265625
638	0.8447265625	304.36992223154	0.0005596923828125	0.8447265625
639	0.84228515625	304.394322231478	0.000546875	0.841064453125
640	0.83984375	304.418722231417	0.00053436279296875	0.83953857421875
641	0.83740234375	304.443122231355	0.00052215576171875	0.8367919921875
642	0.8349609375	304.467522231293	0.00051055908203125	0.8343505859375
643	0.83251953125	304.491922231232	0.000497955322265625	0.8319091796875
644	0.830078125	304.51632223117	0.0004873046875	0.828857421875
645	0.82763671875	304.540722231109	0.000476165771484375	0.82672119140625
646	0.8251953125	304.565122231047	0.000465728759765625	0.8245849609375
647	0.82275390625	304.589522230985	0.00045489501953125	0.82183837890625
648	0.8203125	304.613922230924	0.000444915771484375	0.819091796875
649	0.81787109375	304.638322230862	0.000435150146484375	0.816650390625
650	0.8154296875	304.662722230801	0.000425445556640625	0.81512451171875
651	0.81298828125	304.687122230739	0.00041668701171875	0.811767578125
652	0.810546875	304.711522230677	0.000407073974609375	0.80963134765625
653	0.80810546875	304.735922230616	0.000398651123046875	0.8074951171875
654	0.8056640625	304.760322230554	0.0003896484375	0.80474853515625
655	0.80322265625	304.784722230493	0.000381683349609375	0.8026123046875
656	0.80078125	304.809122230431	0.000373291015625	0.8001708984375
657	0.79833984375	304.833522230369	0.000365081787109375	0.7977294921875
658	0.7958984375	304.857922230308	0.000357391357421875	0.794677734375
659	0.79345703125	304.882322230246	0.000349456787109375	0.79254150390625
660	0.791015625	304.906722230185	0.000342437744140625	0.7904052734375
661	0.78857421875	304.931122230123	0.00033453369140625	0.78765869140625
662	0.7861328125	304.955522230061	0.0003277587890625	0.784912109375
663	0.78369140625	304.97992223	0.0003203125	0.782470703125
664	0.78125	305.004322229938	0.000313720703125	0.78033447265625
665	0.77880859375	305.028722229877	0.00030694580078125	0.777587890625
666	0.7763671875	305.053122229815	0.000300689697265625	0.7757568359375
667	0.77392578125	305.077522229753	0.00029425048828125	0.7733154296875
668	0.771484375	305.101922229692	0.000287567138671875	0.77117919921875
669	0.76904296875	305.12632222963	0.000281707763671875	0.76751708984375
670	0.7666015625	305.150722229568	0.000275299072265625	0.765380859375
671	0.76416015625	305.175122229507	0.0002698974609375	0.76324462890625
672	0.76171875	305.199522229445	0.00026373291015625	0.76080322265625
673	0.75927734375	305.223922229384	0.000258270263671875	0.758056640625
674	0.7568359375	305.248322229322	0.000252532958984375	0.75653076171875
675	0.75439453125	305.27272222926	0.000246978759765625	0.7537841796875
676	0.751953125	305.297122229199	0.000241241455078125	0.750732421875
677	0.74951171875	305.321522229137	0.0002357177734375	0.74932861328125
678	0.7470703125	305.345922229076	0.000231170654296875	0.746856689453125
679	0.74462890625	305.370322229014	0.0002255859375	0.74432373046875
680	0.7421875	305.394722228952	0.000220733642578125	0.741973876953125
681	0.73974609375	305.419122228891	0.000215667724609375	0.739532470703125
682	0.7373046875	305.443522228829	0.000211273193359375	0.737091064453125
683	0.73486328125	305.467922228768	0.000206451416015625	0.734649658203125
684	0.732421875	305.492322228706	0.00020172119140625	0.732147216796875
685	0.72998046875	305.516722228644	0.000197418212890625	0.729766845703125
686	0.7275390625	305.541122228583	0.0001923828125	0.727325439453125
687	0.72509765625	305.565522228521	0.0001884765625	0.724853515625
688	0.72265625	305.58992222846	0.00018377685546875	0.722381591796875
689	0.72021484375	305.614322228398	0.00018011474609375	0.719970703125
690	0.7177734375	305.638722228336	0.00017547607421875	0.71759033203125
691	0.71533203125	305.663122228275	0.00017181396484375	0.715118408203125
692	0.712890625	305.687522228213	0.00016754150390625	0.7127685546875
693	0.71044921875	305.711922228152	0.000163909912109375	0.710205078125
694	0.7080078125	305.73632222809	0.000159942626953125	0.707763671875
695	0.70556640625	305.760722228028	0.000155487060546875	0.70538330078125
696	0.703125	305.785122227967	0.000152374267578125	0.702972412109375
697	0.70068359375	305.809522227905	0.00014801025390625	0.700469970703125
698	0.6982421875	305.833922227844	0.0001448974609375	0.69805908203125
699	0.69580078125	305.858322227782	0.000141326904296875	0.69561767578125
700	0.693359375	305.88272222772	0.000138153076171875	0.69317626953125
701	0.69091796875	305.907122227659	0.000134613037109375	0.6907958984375
702	0.6884765625	305.931522227597	0.000131317138671875	0.688323974609375
703	0.68603515625	305.955922227536	0.00012823486328125	0.68585205078125
704	0.68359375	305.980322227474	0.00012457275390625	0.683441162109375
705	0.68115234375	306.004722227412	0.00012200927734375	0.6810302734375
706	0.6787109375	306.029122227351	0.0001180419921875	0.67852783203125
707	0.67626953125	306.053522227289	0.000115509033203125	0.676055908203125
708	0.673828125	306.077922227228	0.0001123046875	0.6737060546875
709	0.67138671875	306.102322227166	0.000109710693359375	0.671295166015625
710	0.6689453125	306.126722227104	0.000106597900390625	0.66876220703125
711	0.66650390625	306.151122227043	0.000103546142578125	0.6663818359375
712	0.6640625	306.175522226981	0.00010107421875	0.663970947265625
713	0.66162109375	306.19992222692	9.7900390625E-05	0.661468505859375
714	0.6591796875	306.224322226858	9.60693359375E-05	0.659027099609375
715	0.65673828125	306.248722226796	9.283447265625E-05	0.6566162109375
716	0.654296875	306.273122226735	9.1156005859375E-05	0.654144287109375
717	0.65185546875	306.297522226673	8.795166015625E-05	0.651702880859375
718	0.6494140625	306.321922226611	8.575439453125E-05	0.649078369140625
719	0.64697265625	306.34632222655	8.3160400390625E-05	0.646759033203125
720	0.64453125	306.370722226488	8.087158203125E-05	0.644317626953125
721	0.64208984375	306.395122226427	7.8887939453125E-05	0.641845703125
722	0.6396484375	306.419522226365	7.6080322265625E-05	0.639404296875
723	0.63720703125	306.443922226303	7.4554443359375E-05	0.636993408203125
724	0.634765625	306.468322226242	7.177734375E-05	0.634521484375
725	0.63232421875	306.49272222618	7.0281982421875E-05	0.632110595703125
726	0.6298828125	306.517122226119	6.79931640625E-05	0.6297607421875
727	0.62744140625	306.541522226057	6.6436767578125E-05	0.62725830078125
728	0.625	306.565922225995	6.4483642578125E-05	0.62481689453125
729	0.62255859375	306.590322225934	6.201171875E-05	0.622314453125
730	0.6201171875	306.614722225872	6.036376953125E-05	0.61993408203125
731	0.61767578125	306.639122225811	5.7861328125E-05	0.61749267578125
732	0.615234375	306.663522225749	5.6610107421875E-05	0.61505126953125
733	0.61279296875	306.687922225687	5.4168701171875E-05	0.6126708984375
734	0.6103515625	306.712322225626	5.3070068359375E-05	0.610137939453125
735	0.60791015625	306.736722225564	5.1177978515625E-05	0.607757568359375
736	0.60546875	306.761122225503	4.9530029296875E-05	0.605316162109375
737	0.60302734375	306.785522225441	4.78302001953125E-05	0.60284423828125
738	0.6005859375	306.809922225379	4.6038818359375E-05	0.6004638671875
739	0.59814453125	306.834322225318	4.495849609375E-05	0.5980224609375
740	0.595703125	306.858722225256	4.31427001953125E-05	0.595550537109375
741	0.59326171875	306.883122225195	4.21051025390625E-05	0.59307861328125
742	0.5908203125	306.907522225133	4.0155029296875E-05	0.59063720703125
743	0.58837890625	306.931922225071	3.9398193359375E-05	0.588226318359375
744	0.5859375	306.95632222501	3.7530517578125E-05	0.58575439453125
745	0.58349609375	306.980722224948	3.62396240234375E-05	0.583343505859375
746	0.5810546875	307.005122224887	3.48236083984375E-05	0.5809326171875
747	0.57861328125	307.029522224825	3.31298828125E-05	0.578460693359375
748	0.576171875	307.053922224763	3.226318359375E-05	0.576080322265625
749	0.57373046875	307.078322224702	3.076171875E-05	0.573638916015625
750	0.5712890625	307.10272222464	3.028564453125E-05	0.571136474609375
751	0.56884765625	307.127122224579	2.840576171875E-05	0.568695068359375
752	0.56640625	307.151522224517	2.76153564453125E-05	0.566314697265625
753	0.56396484375	307.175922224455	2.61993408203125E-05	0.5638427734375
754	0.5615234375	307.200322224394	2.542724609375E-05	0.5614013671875
755	0.55908203125	307.224722224332	2.40966796875E-05	0.558990478515625
756	0.556640625	307.249122224271	2.26806640625E-05	0.5565185546875
757	0.55419921875	307.273522224209	2.19573974609375E-05	0.554107666015625
758	0.5517578125	307.297922224147	2.0672607421875E-05	0.5516357421875
759	0.54931640625	307.322322224086	1.99737548828125E-05	0.54925537109375
760	0.546875	307.346722224024	1.8463134765625E-05	0.546783447265625
761	0.54443359375	307.371122223963	1.798095703125E-05	0.544403076171875
762	0.5419921875	307.395522223901	1.67388916015625E-05	0.541900634765625
763	0.53955078125	307.419922223839	1.6241455078125E-05	0.539459228515625
764	0.537109375	307.444322223778	1.5399169921875E-05	0.53704833984375
765	0.53466796875	307.468722223716	1.41082763671875E-05	0.5345458984375
766	0.5322265625	307.493122223654	1.3714599609375E-05	0.532135009765625
767	0.52978515625	307.517522223593	1.23138427734375E-05	0.52972412109375
768	0.52734375	307.541922223531	1.2176513671875E-05	0.52728271484375
769	0.52490234375	307.56632222347	1.07330322265625E-05	0.524871826171875
770	0.5224609375	307.590722223408	1.0443115234375E-05	0.52239990234375
771	0.52001953125	307.615122223346	9.3109130859375E-06	0.519989013671875
772	0.517578125	307.639522223285	8.9019775390625E-06	0.51751708984375
773	0.51513671875	307.663922223223	8.2244873046875E-06	0.51513671875
774	0.5126953125	307.688322223162	7.244873046875E-06	0.512603759765625
775	0.51025390625	307.7127222231	7.0831298828125E-06	0.51019287109375
776	0.5078125	307.737122223038	6.011962890625E-06	0.50762939453125
777	0.50537109375	307.761522222977	5.877685546875E-06	0.505279541015625
778	0.5029296875	307.785922222915	4.6478271484375E-06	0.502777099609375
779	0.50048828125	307.810322222854	4.5318603515625E-06	0.5003662109375
780	0.498046875	307.834722222792	3.670654296875E-06	0.497955322265625
781	0.49560546875	307.85912222273	3.15673828125E-06	0.495513916015625
782	0.4931640625	307.883522222669	2.64678955078125E-06	0.49310302734375
783	0.49072265625	307.907922222607	1.8414306640625E-06	0.490631103515625
784	0.48828125	307.932322222546	1.71783447265625E-06	0.48822021484375
785	0.48583984375	307.956722222484	7.794189453125E-07	0.485748291015625
786	0.4833984375	307.981122222422	7.0465087890625E-07	0.4833984375
787	0.48095703125	308.005522222361	-4.0191650390625E-07	0.48089599609375
788	0.478515625	308.029922222299	-3.2196044921875E-07	0.478515625
789	0.47607421875	308.054322222238	-1.06964111328125E-06	0.476043701171875
790	0.4736328125	308.078722222176	-1.39251708984375E-06	0.4736328125
791	0.47119140625	308.103122222114	-1.66534423828125E-06	0.47119140625
792	0.46875	308.127522222053	-2.48870849609375E-06	0.468780517578125
793	0.46630859375	308.151922221991	-2.43560791015625E-06	0.46624755859375
794	0.4638671875	308.17632222193	-3.26690673828125E-06	0.463836669921875
795	0.46142578125	308.200722221868	-2.97637939453125E-06	0.46142578125
796	0.458984375	308.225122221806	-4.31915283203125E-06	0.459014892578125
797	0.45654296875	308.249522221745	-4.04937744140625E-06	0.45660400390625
798	0.4541015625	308.273922221683	-4.986572265625E-06	0.454193115234375
799	0.45166015625	308.298322221622	-5.21240234375E-06	0.45166015625
800	0.44921875	308.32272222156	-5.621337890625E-06	0.44921875
801	0.44677734375	308.347122221498	-6.2713623046875E-06	0.446746826171875
802	0.4443359375	308.371522221437	-6.0638427734375E-06	0.4443359375
803	0.44189453125	308.395922221375	-6.707763671875E-06	0.44189453125
804	0.439453125	308.420322221314	-6.3232421875E-06	0.43951416015625
805	0.43701171875	308.444722221252	-7.4066162109375E-06	0.437042236328125
806	0.4345703125	308.46912222119	-7.2662353515625E-06	0.4345703125
807	0.43212890625	308.493522221129	-7.696533203125E-06	0.432159423828125
808	0.4296875	308.517922221067	-7.952880859375E-06	0.429779052734375
809	0.42724609375	308.542322221006	-8.1451416015625E-06	0.4273681640625
810	0.4248046875	308.566722220944	-8.7158203125E-06	0.4249267578125
811	0.42236328125	308.591122220882	-8.4136962890625E-06	0.422454833984375
812	0.419921875	308.615522220821	-9.3048095703125E-06	0.420074462890625
813	0.41748046875	308.639922220759	-8.856201171875E-06	0.41754150390625
814	0.4150390625	308.664322220697	-9.7412109375E-06	0.41510009765625
815	0.41259765625	308.688722220636	-9.55810546875E-06	0.41265869140625
816	0.41015625	308.713122220574	-1.015625E-05	0.41021728515625
817	0.40771484375	308.737522220513	-1.02020263671875E-05	0.407867431640625
818	0.4052734375	308.761922220451	-1.038818359375E-05	0.4053955078125
819	0.40283203125	308.786322220389	-1.104736328125E-05	0.402984619140625
820	0.400390625	308.810722220328	-1.06689453125E-05	0.400482177734375
821	0.39794921875	308.835122220266	-1.1480712890625E-05	0.398040771484375
822	0.3955078125	308.859522220205	-1.10107421875E-05	0.395660400390625
823	0.39306640625	308.883922220143	-1.1968994140625E-05	0.393157958984375
824	0.390625	308.908322220081	-1.1627197265625E-05	0.3907470703125
825	0.38818359375	308.93272222002	-1.20941162109375E-05	0.388336181640625
826	0.3857421875	308.957122219958	-1.21429443359375E-05	0.385894775390625
827	0.38330078125	308.981522219897	-1.21673583984375E-05	0.3834228515625
828	0.380859375	309.005922219835	-1.2762451171875E-05	0.381011962890625
829	0.37841796875	309.030322219773	-1.236572265625E-05	0.37860107421875
830	0.3759765625	309.054722219712	-1.331787109375E-05	0.37615966796875
831	0.37353515625	309.07912221965	-1.26678466796875E-05	0.37371826171875
832	0.37109375	309.103522219589	-1.37420654296875E-05	0.3712158203125
833	0.36865234375	309.127922219527	-1.3385009765625E-05	0.36883544921875
834	0.3662109375	309.152322219465	-1.3800048828125E-05	0.36639404296875
835	0.36376953125	309.176722219404	-1.39984130859375E-05	0.36395263671875
836	0.361328125	309.201122219342	-1.39404296875E-05	0.361541748046875
837	0.35888671875	309.225522219281	-1.4447021484375E-05	0.359039306640625
838	0.3564453125	309.249922219219	-1.42303466796875E-05	0.356689453125
839	0.35400390625	309.274322219157	-1.50238037109375E-05	0.35418701171875
840	0.3515625	309.298722219096	-1.4312744140625E-05	0.351776123046875
841	0.34912109375	309.323122219034	-1.5093994140625E-05	0.349273681640625
842	0.3466796875	309.347522218973	-1.48468017578125E-05	0.346893310546875
843	0.34423828125	309.371922218911	-1.49932861328125E-05	0.34442138671875
844	0.341796875	309.396322218849	-1.51092529296875E-05	0.34197998046875
845	0.33935546875	309.420722218788	-1.50909423828125E-05	0.339569091796875
846	0.3369140625	309.445122218726	-1.5618896484375E-05	0.33709716796875
847	0.33447265625	309.469522218665	-1.5118408203125E-05	0.334686279296875
848	0.33203125	309.493922218603	-1.5850830078125E-05	0.33221435546875
849	0.32958984375	309.518322218541	-1.51580810546875E-05	0.329833984375
850	0.3271484375	309.54272221848	-1.6107177734375E-05	0.327301025390625
851	0.32470703125	309.567122218418	-1.58172607421875E-05	0.324951171875
852	0.322265625	309.591522218357	-1.610107421875E-05	0.32244873046875
853	0.31982421875	309.615922218295	-1.630859375E-05	0.320068359375
854	0.3173828125	309.640322218233	-1.63421630859375E-05	0.317596435546875
855	0.31494140625	309.664722218172	-1.6900634765625E-05	0.315185546875
856	0.3125	309.68912221811	-1.65283203125E-05	0.312713623046875
857	0.31005859375	309.713522218049	-1.727294921875E-05	0.310302734375
858	0.3076171875	309.737922217987	-1.66717529296875E-05	0.307830810546875
859	0.30517578125	309.762322217925	-1.754150390625E-05	0.30535888671875
860	0.302734375	309.786722217864	-1.73004150390625E-05	0.30291748046875
861	0.30029296875	309.811122217802	-1.768798828125E-05	0.300506591796875
862	0.2978515625	309.835522217741	-1.77490234375E-05	0.298126220703125
863	0.29541015625	309.859922217679	-1.77520751953125E-05	0.295654296875
864	0.29296875	309.884322217617	-1.83319091796875E-05	0.293212890625
865	0.29052734375	309.908722217556	-1.7913818359375E-05	0.290740966796875
866	0.2880859375	309.933122217494	-1.85638427734375E-05	0.288360595703125
867	0.28564453125	309.957522217432	-1.78741455078125E-05	0.285858154296875
868	0.283203125	309.981922217371	-1.87347412109375E-05	0.283447265625
869	0.28076171875	310.006322217309	-1.8511962890625E-05	0.281036376953125
870	0.2783203125	310.030722217248	-1.87469482421875E-05	0.278533935546875
871	0.27587890625	310.055122217186	-1.88140869140625E-05	0.276153564453125
872	0.2734375	310.079522217124	-1.87957763671875E-05	0.273651123046875
873	0.27099609375	310.103922217063	-1.93756103515625E-05	0.271270751953125
874	0.2685546875	310.128322217001	-1.883544921875E-05	0.268829345703125
875	0.26611328125	310.15272221694	-1.95587158203125E-05	0.266357421875
876	0.263671875	310.177122216878	-1.90338134765625E-05	0.263946533203125
877	0.26123046875	310.201522216816	-1.9732666015625E-05	0.261474609375
878	0.2587890625	310.225922216755	-1.93572998046875E-05	0.25909423828125
879	0.25634765625	310.250322216693	-1.95709228515625E-05	0.256622314453125
880	0.25390625	310.274722216632	-1.95556640625E-05	0.254150390625
881	0.25146484375	310.29912221657	-1.964111328125E-05	0.25177001953125
882	0.2490234375	310.323522216508	-2.005615234375E-05	0.24932861328125
883	0.24658203125	310.347922216447	-1.95648193359375E-05	0.24688720703125
884	0.244140625	310.372322216385	-2.03704833984375E-05	0.244354248046875
885	0.24169921875	310.396722216324	-1.97845458984375E-05	0.241943359375
886	0.2392578125	310.421122216262	-2.0428466796875E-05	0.239501953125
887	0.23681640625	310.4455222162	-2.00592041015625E-05	0.23712158203125
888	0.234375	310.469922216139	-2.03155517578125E-05	0.234649658203125
889	0.23193359375	310.494322216077	-2.05108642578125E-05	0.23223876953125
890	0.2294921875	310.518722216016	-2.05078125E-05	0.22979736328125
891	0.22705078125	310.543122215954	-2.11578369140625E-05	0.227386474609375
892	0.224609375	310.567522215892	-2.06268310546875E-05	0.22491455078125
893	0.22216796875	310.591922215831	-2.12127685546875E-05	0.222503662109375
894	0.2197265625	310.616322215769	-2.0703125E-05	0.220062255859375
895	0.21728515625	310.640722215708	-2.14447021484375E-05	0.217559814453125
896	0.21484375	310.665122215646	-2.1173095703125E-05	0.215179443359375
897	0.21240234375	310.689522215584	-2.1319580078125E-05	0.21270751953125
898	0.2099609375	310.713922215523	-2.149658203125E-05	0.210235595703125
899	0.20751953125	310.738322215461	-2.1417236328125E-05	0.20782470703125
900	0.205078125	310.7627222154	-2.205810546875E-05	0.2054443359375
901	0.20263671875	310.787122215338	-2.1484375E-05	0.20294189453125
902	0.2001953125	310.811522215276	-2.2216796875E-05	0.20050048828125
903	0.19775390625	310.835922215215	-2.15087890625E-05	0.19805908203125
904	0.1953125	310.860322215153	-2.2314453125E-05	0.19561767578125
905	0.19287109375	310.884722215092	-2.2064208984375E-05	0.193145751953125
906	0.1904296875	310.90912221503	-2.230224609375E-05	0.190704345703125
907	0.18798828125	310.933522214968	-2.23907470703125E-05	0.1883544921875
908	0.185546875	310.957922214907	-2.23388671875E-05	0.185882568359375
909	0.18310546875	310.982322214845	-2.2943115234375E-05	0.183380126953125
910	0.1806640625	311.006722214784	-2.24273681640625E-05	0.180999755859375
911	0.17822265625	311.031122214722	-2.31048583984375E-05	0.178619384765625
912	0.17578125	311.05552221466	-2.252197265625E-05	0.176116943359375
913	0.17333984375	311.079922214599	-2.31964111328125E-05	0.173675537109375
914	0.1708984375	311.104322214537	-2.2882080078125E-05	0.17120361328125
915	0.16845703125	311.128722214475	-2.314453125E-05	0.1688232421875
916	0.166015625	311.153122214414	-2.32025146484375E-05	0.166351318359375
917	0.16357421875	311.177522214352	-2.30712890625E-05	0.1639404296875
918	0.1611328125	311.201922214291	-2.364501953125E-05	0.1614990234375
919	0.15869140625	311.226322214229	-2.31719970703125E-05	0.159027099609375
920	0.15625	311.250722214167	-2.38006591796875E-05	0.156585693359375
921	0.15380859375	311.275122214106	-2.3199462890625E-05	0.154144287109375
922	0.1513671875	311.299522214044	-2.38006591796875E-05	0.151641845703125
923	0.14892578125	311.323922213983	-2.359619140625E-05	0.149322509765625
924	0.146484375	311.348322213921	-2.37884521484375E-05	0.1468505859375
925	0.14404296875	311.372722213859	-2.39776611328125E-05	0.144439697265625
926	0.1416015625	311.397122213798	-2.386474609375E-05	0.14190673828125
927	0.13916015625	311.421522213736	-2.44903564453125E-05	0.139495849609375
928	0.13671875	311.445922213675	-2.39501953125E-05	0.137115478515625
929	0.13427734375	311.470322213613	-2.46978759765625E-05	0.134674072265625
930	0.1318359375	311.494722213551	-2.4127197265625E-05	0.1322021484375
931	0.12939453125	311.51912221349	-2.47344970703125E-05	0.129730224609375
932	0.126953125	311.543522213428	-2.44781494140625E-05	0.127349853515625
933	0.12451171875	311.567922213367	-2.4755859375E-05	0.12493896484375
934	0.1220703125	311.592322213305	-2.48504638671875E-05	0.122467041015625
935	0.11962890625	311.616722213243	-2.46429443359375E-05	0.1199951171875
936	0.1171875	311.641122213182	-2.5238037109375E-05	0.11761474609375
937	0.11474609375	311.66552221312	-2.46734619140625E-05	0.115142822265625
938	0.1123046875	311.689922213059	-2.540283203125E-05	0.1126708984375
939	0.10986328125	311.714322212997	-2.48199462890625E-05	0.11029052734375
940	0.107421875	311.738722212935	-2.54241943359375E-05	0.1077880859375
941	0.10498046875	311.763122212874	-2.5201416015625E-05	0.105377197265625
942	0.1025390625	311.787522212812	-2.53814697265625E-05	0.102996826171875
943	0.10009765625	311.811922212751	-2.5537109375E-05	0.10052490234375
944	0.09765625	311.836322212689	-2.5439453125E-05	0.098052978515625
945	0.09521484375	311.860722212627	-2.6007080078125E-05	0.095611572265625
946	0.0927734375	311.885122212566	-2.54364013671875E-05	0.093231201171875
947	0.09033203125	311.909522212504	-2.6202392578125E-05	0.09075927734375
948	0.087890625	311.933922212443	-2.55828857421875E-05	0.088287353515625
949	0.08544921875	311.958322212381	-2.62359619140625E-05	0.085845947265625
950	0.0830078125	311.982722212319	-2.60040283203125E-05	0.083404541015625
951	0.08056640625	312.007122212258	-2.61932373046875E-05	0.08099365234375
952	0.078125	312.031522212196	-2.63397216796875E-05	0.07861328125
953	0.07568359375	312.055922212135	-2.61627197265625E-05	0.076080322265625
954	0.0732421875	312.080322212073	-2.677001953125E-05	0.073699951171875
955	0.07080078125	312.104722212011	-2.62481689453125E-05	0.0712890625
956	0.068359375	312.12912221195	-2.69317626953125E-05	0.06884765625
957	0.06591796875	312.153522211888	-2.635498046875E-05	0.066375732421875
958	0.0634765625	312.177922211827	-2.7020263671875E-05	0.063873291015625
959	0.06103515625	312.202322211765	-2.67822265625E-05	0.061492919921875
960	0.05859375	312.226722211703	-2.6983642578125E-05	0.05902099609375
961	0.05615234375	312.251122211642	-2.7117919921875E-05	0.056610107421875
962	0.0537109375	312.27552221158	-2.69500732421875E-05	0.054168701171875
963	0.05126953125	312.299922211518	-2.752685546875E-05	0.051788330078125
964	0.048828125	312.324322211457	-2.69683837890625E-05	0.04937744140625
965	0.04638671875	312.348722211395	-2.7630615234375E-05	0.0465789794921875
966	0.0439453125	312.373122211334	-2.7008056640625E-05	0.0441253662109375
967	0.04150390625	312.397522211272	-2.76824951171875E-05	0.0416656494140625
968	0.0390625	312.42192221121	-2.742919921875E-05	0.0392364501953125
969	0.03662109375	312.446322211149	-2.75848388671875E-05	0.036798095703125
970	0.0341796875	312.470722211087	-2.76824951171875E-05	0.0343597412109375
971	0.03173828125	312.495122211026	-2.75054931640625E-05	0.0319183349609375
972	0.029296875	312.519522210964	-2.8045654296875E-05	0.02947998046875
973	0.02685546875	312.543922210902	-2.74871826171875E-05	0.027032470703125
974	0.0244140625	312.568322210841	-2.813720703125E-05	0.0246185302734375
975	0.02197265625	312.592722210779	-2.75177001953125E-05	0.0221649169921875
976	0.01953125	312.617122210718	-2.8167724609375E-05	0.0197021484375
977	0.01708984375	312.641522210656	-2.791748046875E-05	0.017279052734375
978	0.0146484375	312.665922210594	-2.80792236328125E-05	0.014837646484375
979	0.01220703125	312.690322210533	-2.81890869140625E-05	0.012408447265625
980	0.009765625	312.714722210471	-2.80181884765625E-05	0.0099517822265625
981	0.00732421875	312.73912221041	-2.85919189453125E-05	0.00750732421875
982	0.0048828125	312.763522210348	-2.80303955078125E-05	0.00507507324218751
983	0.00244140625	312.787922210286	-2.86865234375E-05	0.00263061523437499
984	0	312.812322210225	-2.80853271484375E-05	0.000186157226562497
985	0.00244140625	312.836722210163	-2.85919189453125E-05	0.0026214599609375
986	0.0048828125	312.861122210102	-2.8216552734375E-05	0.0050689697265625
987	0.00732421875	312.88552221004	-2.82562255859375E-05	0.00751647949218751
988	0.009765625	312.909922209978	-2.82440185546875E-05	0.0099639892578125
989	0.01220703125	312.934322209917	-2.79510498046875E-05	0.01240234375
990	0.0146484375	312.958722209855	-2.84149169921875E-05	0.014825439453125
991	0.01708984375	312.983122209794	-2.77252197265625E-05	0.0172760009765625
992	0.01953125	313.007522209732	-2.8271484375E-05	0.0197113037109375
993	0.02197265625	313.03192220967	-2.75299072265625E-05	0.02218017578125
