Index	Potential applied (V)	Time (s)	WE(1).Current (A)	WE(1).Potential (V)
1	0.00244140625	6.65693998319284	-2.85858154296875E-05	0.00260009765624999
2	0.0048828125	6.68133998313124	-2.91107177734375E-05	0.00504150390624999
3	0.00732421875	6.70573998306963	-2.838134765625E-05	0.007476806640625
4	0.009765625	6.73013998300803	-2.88421630859375E-05	0.0099212646484375
5	0.01220703125	6.75453998294643	-2.85400390625E-05	0.0123504638671875
6	0.0146484375	6.77893998288482	-2.84912109375E-05	0.0147857666015625
7	0.01708984375	6.80333998282322	-2.85675048828125E-05	0.0172637939453125
8	0.01953125	6.82773998276161	-2.81494140625E-05	0.019671630859375
9	0.02197265625	6.85213998270001	-2.867431640625E-05	0.0221221923828125
10	0.0244140625	6.87653998263841	-2.7911376953125E-05	0.02457275390625
11	0.02685546875	6.9009399825768	-2.841796875E-05	0.0270050048828125
12	0.029296875	6.9253399825152	-2.7752685546875E-05	0.029449462890625
13	0.03173828125	6.94973998245359	-2.81341552734375E-05	0.0319000244140625
14	0.0341796875	6.97413998239199	-2.79296875E-05	0.034320068359375
15	0.03662109375	6.99853998233039	-2.77862548828125E-05	0.036749267578125
16	0.0390625	7.02293998226878	-2.79388427734375E-05	0.039208984375
17	0.04150390625	7.04733998220718	-2.74261474609375E-05	0.041656494140625
18	0.0439453125	7.07173998214557	-2.79998779296875E-05	0.044097900390625
19	0.04638671875	7.09613998208397	-2.72308349609375E-05	0.046551513671875
20	0.048828125	7.12053998202236	-2.77008056640625E-05	0.048968505859375
21	0.05126953125	7.14493998196076	-2.71209716796875E-05	0.051361083984375
22	0.0537109375	7.16933998189916	-2.740478515625E-05	0.05377197265625
23	0.05615234375	7.19373998183755	-2.7313232421875E-05	0.0562744140625
24	0.05859375	7.21813998177595	-2.7069091796875E-05	0.0587158203125
25	0.06103515625	7.24253998171434	-2.73284912109375E-05	0.0611572265625
26	0.0634765625	7.26693998165274	-2.674560546875E-05	0.063568115234375
27	0.06591796875	7.29133998159114	-2.73468017578125E-05	0.0660400390625
28	0.068359375	7.31573998152953	-2.657470703125E-05	0.0684814453125
29	0.07080078125	7.34013998146793	-2.6971435546875E-05	0.0709228515625
30	0.0732421875	7.36453998140632	-2.6483154296875E-05	0.0733642578125
31	0.07568359375	7.38893998134472	-2.667236328125E-05	0.0758056640625
32	0.078125	7.41333998128312	-2.66510009765625E-05	0.07818603515625
33	0.08056640625	7.43773998122151	-2.633056640625E-05	0.08062744140625
34	0.0830078125	7.46213998115991	-2.66143798828125E-05	0.083099365234375
35	0.08544921875	7.4865399810983	-2.59368896484375E-05	0.0855712890625
36	0.087890625	7.5109399810367	-2.65716552734375E-05	0.087982177734375
37	0.09033203125	7.5353399809751	-2.58453369140625E-05	0.0904541015625
38	0.0927734375	7.55973998091349	-2.61932373046875E-05	0.092864990234375
39	0.09521484375	7.58413998085189	-2.58087158203125E-05	0.09527587890625
40	0.09765625	7.60853998079028	-2.59063720703125E-05	0.097808837890625
41	0.10009765625	7.63293998072868	-2.60009765625E-05	0.1002197265625
42	0.1025390625	7.65733998066707	-2.56195068359375E-05	0.102630615234375
43	0.10498046875	7.68173998060547	-2.59490966796875E-05	0.1051025390625
44	0.107421875	7.70613998054387	-2.523193359375E-05	0.10748291015625
45	0.10986328125	7.73053998048226	-2.5848388671875E-05	0.109893798828125
46	0.1123046875	7.75493998042066	-2.5152587890625E-05	0.11236572265625
47	0.11474609375	7.77933998035905	-2.54669189453125E-05	0.1148681640625
48	0.1171875	7.80373998029745	-2.51495361328125E-05	0.1173095703125
49	0.11962890625	7.82813998023585	-2.5140380859375E-05	0.1197509765625
50	0.1220703125	7.85253998017424	-2.5299072265625E-05	0.122161865234375
51	0.12451171875	7.87693998011264	-2.48077392578125E-05	0.1246337890625
52	0.126953125	7.90133998005103	-2.52777099609375E-05	0.1270751953125
53	0.12939453125	7.92573997998943	-2.45391845703125E-05	0.1295166015625
54	0.1318359375	7.95013997992783	-2.51495361328125E-05	0.13189697265625
55	0.13427734375	7.97453997986622	-2.45452880859375E-05	0.134368896484375
56	0.13671875	7.99893997980462	-2.474365234375E-05	0.13677978515625
57	0.13916015625	8.02333997974301	-2.4505615234375E-05	0.1392822265625
58	0.1416015625	8.04773997968141	-2.44140625E-05	0.141693115234375
59	0.14404296875	8.07213997961981	-2.4713134765625E-05	0.144134521484375
60	0.146484375	8.0965399795582	-2.40966796875E-05	0.1466064453125
61	0.14892578125	8.1209399794966	-2.45452880859375E-05	0.149017333984375
62	0.1513671875	8.14533997943499	-2.37640380859375E-05	0.15142822265625
63	0.15380859375	8.16973997937339	-2.4322509765625E-05	0.153961181640625
64	0.15625	8.19413997931179	-2.3779296875E-05	0.15631103515625
65	0.15869140625	8.21853997925018	-2.3907470703125E-05	0.1588134765625
66	0.1611328125	8.24293997918858	-2.3785400390625E-05	0.1612548828125
67	0.16357421875	8.26733997912697	-2.34619140625E-05	0.163665771484375
68	0.166015625	8.29173997906537	-2.3797607421875E-05	0.166046142578125
69	0.16845703125	8.31613997900376	-2.3089599609375E-05	0.168548583984375
70	0.1708984375	8.34053997894216	-2.35809326171875E-05	0.17095947265625
71	0.17333984375	8.36493997888056	-2.2796630859375E-05	0.17333984375
72	0.17578125	8.38933997881895	-2.34130859375E-05	0.175811767578125
73	0.17822265625	8.41373997875735	-2.2894287109375E-05	0.178314208984375
74	0.1806640625	8.43813997869574	-2.29156494140625E-05	0.18072509765625
75	0.18310546875	8.46253997863414	-2.27996826171875E-05	0.183135986328125
76	0.185546875	8.48693997857254	-2.2515869140625E-05	0.18560791015625
77	0.18798828125	8.51133997851093	-2.2869873046875E-05	0.188018798828125
78	0.1904296875	8.53573997844933	-2.2125244140625E-05	0.19049072265625
79	0.19287109375	8.56013997838772	-2.26318359375E-05	0.192962646484375
80	0.1953125	8.58453997832612	-2.1881103515625E-05	0.19537353515625
81	0.19775390625	8.60893997826452	-2.23876953125E-05	0.19781494140625
82	0.2001953125	8.63333997820291	-2.20458984375E-05	0.200225830078125
83	0.20263671875	8.65773997814131	-2.20550537109375E-05	0.202728271484375
84	0.205078125	8.6821399780797	-2.19757080078125E-05	0.20513916015625
85	0.20751953125	8.7065399780181	-2.1673583984375E-05	0.20758056640625
86	0.2099609375	8.7309399779565	-2.2113037109375E-05	0.21002197265625
87	0.21240234375	8.75533997789489	-2.14019775390625E-05	0.212432861328125
88	0.21484375	8.77973997783329	-2.1905517578125E-05	0.21484375
89	0.21728515625	8.80413997777168	-2.1112060546875E-05	0.217376708984375
90	0.2197265625	8.82853997771008	-2.161865234375E-05	0.219757080078125
91	0.22216796875	8.85293997764848	-2.135009765625E-05	0.222259521484375
92	0.224609375	8.87733997758687	-2.12554931640625E-05	0.22467041015625
93	0.22705078125	8.90173997752527	-2.1319580078125E-05	0.227081298828125
94	0.2294921875	8.92613997746366	-2.076416015625E-05	0.22955322265625
95	0.23193359375	8.95053997740206	-2.12799072265625E-05	0.23193359375
96	0.234375	8.97493997734045	-2.04193115234375E-05	0.234466552734375
97	0.23681640625	8.99933997727885	-2.08251953125E-05	0.236846923828125
98	0.2392578125	9.02373997721725	-2.015380859375E-05	0.239349365234375
99	0.24169921875	9.04813997715564	-2.05230712890625E-05	0.24169921875
100	0.244140625	9.07253997709404	-2.02178955078125E-05	0.244140625
101	0.24658203125	9.09693997703243	-2.0013427734375E-05	0.24658203125
102	0.2490234375	9.12133997697083	-2.01507568359375E-05	0.249053955078125
103	0.25146484375	9.14573997690923	-1.9549560546875E-05	0.25152587890625
104	0.25390625	9.17013997684762	-2.00958251953125E-05	0.25396728515625
105	0.25634765625	9.19453997678602	-1.92779541015625E-05	0.256378173828125
106	0.2587890625	9.21893997672441	-1.97601318359375E-05	0.258880615234375
107	0.26123046875	9.24333997666281	-1.90185546875E-05	0.261260986328125
108	0.263671875	9.26773997660121	-1.9219970703125E-05	0.263702392578125
109	0.26611328125	9.2921399765396	-1.90887451171875E-05	0.266143798828125
110	0.2685546875	9.316539976478	-1.87896728515625E-05	0.26861572265625
111	0.27099609375	9.34093997641639	-1.90673828125E-05	0.27099609375
112	0.2734375	9.36533997635479	-1.844482421875E-05	0.273468017578125
113	0.27587890625	9.38973997629319	-1.883544921875E-05	0.275909423828125
114	0.2783203125	9.41413997623158	-1.81304931640625E-05	0.278350830078125
115	0.28076171875	9.43853997616998	-1.84722900390625E-05	0.2808837890625
116	0.283203125	9.46293997610837	-1.79962158203125E-05	0.283233642578125
117	0.28564453125	9.48733997604677	-1.8023681640625E-05	0.28570556640625
118	0.2880859375	9.51173997598517	-1.79107666015625E-05	0.288177490234375
119	0.29052734375	9.53613997592356	-1.7608642578125E-05	0.29058837890625
120	0.29296875	9.56053997586196	-1.787109375E-05	0.292999267578125
121	0.29541015625	9.58493997580035	-1.734619140625E-05	0.295440673828125
122	0.2978515625	9.60933997573875	-1.7877197265625E-05	0.2978515625
123	0.30029296875	9.63373997567714	-1.72393798828125E-05	0.300323486328125
124	0.302734375	9.65813997561554	-1.756591796875E-05	0.30279541015625
125	0.30517578125	9.68253997555394	-1.69403076171875E-05	0.305206298828125
126	0.3076171875	9.70693997549233	-1.70623779296875E-05	0.3076171875
127	0.31005859375	9.73133997543073	-1.7083740234375E-05	0.310089111328125
128	0.3125	9.75573997536912	-1.66168212890625E-05	0.31256103515625
129	0.31494140625	9.78013997530752	-1.69586181640625E-05	0.314971923828125
130	0.3173828125	9.80453997524592	-1.61712646484375E-05	0.317474365234375
131	0.31982421875	9.82893997518431	-1.6839599609375E-05	0.319915771484375
132	0.322265625	9.85333997512271	-1.59881591796875E-05	0.322357177734375
133	0.32470703125	9.8777399750611	-1.61224365234375E-05	0.32476806640625
134	0.3271484375	9.9021399749995	-1.57135009765625E-05	0.32720947265625
135	0.32958984375	9.9265399749379	-1.55914306640625E-05	0.329681396484375
136	0.33203125	9.95093997487629	-1.56036376953125E-05	0.332061767578125
137	0.33447265625	9.97533997481469	-1.5008544921875E-05	0.33453369140625
138	0.3369140625	9.99973997475308	-1.5399169921875E-05	0.336944580078125
139	0.33935546875	10.0241399746915	-1.45843505859375E-05	0.339385986328125
140	0.341796875	10.0485399746299	-1.49505615234375E-05	0.341796875
141	0.34423828125	10.0729399745683	-1.41754150390625E-05	0.344207763671875
142	0.3466796875	10.0973399745067	-1.43585205078125E-05	0.346710205078125
143	0.34912109375	10.1217399744451	-1.3983154296875E-05	0.349151611328125
144	0.3515625	10.1461399743835	-1.38214111328125E-05	0.3515625
145	0.35400390625	10.1705399743219	-1.40167236328125E-05	0.35400390625
146	0.3564453125	10.1949399742603	-1.3262939453125E-05	0.356536865234375
147	0.35888671875	10.2193399741986	-1.363525390625E-05	0.35894775390625
148	0.361328125	10.243739974137	-1.278076171875E-05	0.361328125
149	0.36376953125	10.2681399740754	-1.328125E-05	0.36376953125
150	0.3662109375	10.2925399740138	-1.23382568359375E-05	0.3662109375
151	0.36865234375	10.3169399739522	-1.2579345703125E-05	0.36865234375
152	0.37109375	10.3413399738906	-1.23809814453125E-05	0.371124267578125
153	0.37353515625	10.365739973829	-1.207275390625E-05	0.373565673828125
154	0.3759765625	10.3901399737674	-1.2176513671875E-05	0.376007080078125
155	0.37841796875	10.4145399737058	-1.15264892578125E-05	0.378387451171875
156	0.380859375	10.4389399736442	-1.1761474609375E-05	0.380859375
157	0.38330078125	10.4633399735826	-1.09832763671875E-05	0.38330078125
158	0.3857421875	10.487739973521	-1.131591796875E-05	0.38580322265625
159	0.38818359375	10.5121399734594	-1.077880859375E-05	0.38818359375
160	0.390625	10.5365399733978	-1.0736083984375E-05	0.390625
161	0.39306640625	10.5609399733362	-1.04766845703125E-05	0.39306640625
162	0.3955078125	10.5853399732746	-9.991455078125E-06	0.395538330078125
163	0.39794921875	10.609739973213	-1.0382080078125E-05	0.397979736328125
164	0.400390625	10.6341399731514	-9.442138671875E-06	0.400390625
165	0.40283203125	10.6585399730898	-9.8175048828125E-06	0.40283203125
166	0.4052734375	10.6829399730282	-8.7188720703125E-06	0.4052734375
167	0.40771484375	10.7073399729666	-9.063720703125E-06	0.407745361328125
168	0.41015625	10.731739972905	-8.5479736328125E-06	0.410186767578125
169	0.41259765625	10.7561399728434	-8.45947265625E-06	0.4127197265625
170	0.4150390625	10.7805399727818	-8.197021484375E-06	0.415191650390625
171	0.41748046875	10.8049399727201	-7.6202392578125E-06	0.417572021484375
172	0.419921875	10.8293399726585	-7.8643798828125E-06	0.41998291015625
173	0.42236328125	10.8537399725969	-6.8328857421875E-06	0.42242431640625
174	0.4248046875	10.8781399725353	-7.0770263671875E-06	0.4248046875
175	0.42724609375	10.9025399724737	-6.195068359375E-06	0.427276611328125
176	0.4296875	10.9269399724121	-6.2164306640625E-06	0.429718017578125
177	0.43212890625	10.9513399723505	-5.7037353515625E-06	0.432159423828125
178	0.4345703125	10.9757399722889	-5.3741455078125E-06	0.434539794921875
179	0.43701171875	11.0001399722273	-5.133056640625E-06	0.437042236328125
180	0.439453125	11.0245399721657	-4.486083984375E-06	0.439422607421875
181	0.44189453125	11.0489399721041	-4.7088623046875E-06	0.441864013671875
182	0.4443359375	11.0733399720425	-3.798828125E-06	0.44439697265625
183	0.44677734375	11.0977399719809	-4.18212890625E-06	0.446746826171875
184	0.44921875	11.1221399719193	-3.34747314453125E-06	0.449310302734375
185	0.45166015625	11.1465399718577	-3.33160400390625E-06	0.45172119140625
186	0.4541015625	11.1709399717961	-2.82196044921875E-06	0.454132080078125
187	0.45654296875	11.1953399717345	-2.23876953125E-06	0.45654296875
188	0.458984375	11.2197399716729	-2.07550048828125E-06	0.458984375
189	0.46142578125	11.2441399716113	-1.25335693359375E-06	0.46142578125
190	0.4638671875	11.2685399715497	-1.52313232421875E-06	0.463836669921875
191	0.46630859375	11.2929399714881	-5.0811767578125E-07	0.46630859375
192	0.46875	11.3173399714265	-6.8450927734375E-07	0.46875
193	0.47119140625	11.3417399713649	4.351806640625E-07	0.471160888671875
194	0.4736328125	11.3661399713033	5.908203125E-07	0.47357177734375
195	0.47607421875	11.3905399712417	1.246337890625E-06	0.476043701171875
196	0.478515625	11.41493997118	2.25341796875E-06	0.478424072265625
197	0.48095703125	11.4393399711184	2.7874755859375E-06	0.480926513671875
198	0.4833984375	11.4637399710568	3.93798828125E-06	0.48333740234375
199	0.48583984375	11.4881399709952	3.80889892578125E-06	0.485748291015625
200	0.48828125	11.5125399709336	5.2032470703125E-06	0.4881591796875
201	0.49072265625	11.536939970872	5.3009033203125E-06	0.490631103515625
202	0.4931640625	11.5613399708104	6.256103515625E-06	0.4930419921875
203	0.49560546875	11.5857399707488	6.9091796875E-06	0.49542236328125
204	0.498046875	11.6101399706872	7.2998046875E-06	0.497894287109375
205	0.50048828125	11.6345399706256	7.9620361328125E-06	0.50030517578125
206	0.5029296875	11.658939970564	8.544921875E-06	0.502777099609375
207	0.50537109375	11.6833399705024	9.912109375E-06	0.50518798828125
208	0.5078125	11.7077399704408	1.05010986328125E-05	0.507537841796875
209	0.51025390625	11.7321399703792	1.17919921875E-05	0.510009765625
210	0.5126953125	11.7565399703176	1.2060546875E-05	0.512451171875
211	0.51513671875	11.780939970256	1.3055419921875E-05	0.514892578125
212	0.517578125	11.8053399701944	1.34735107421875E-05	0.517333984375
213	0.52001953125	11.8297399701328	1.4508056640625E-05	0.51971435546875
214	0.5224609375	11.8541399700712	1.58721923828125E-05	0.5220947265625
215	0.52490234375	11.8785399700096	1.6363525390625E-05	0.524505615234375
216	0.52734375	11.902939969948	1.7938232421875E-05	0.527008056640625
217	0.52978515625	11.9273399698864	1.83807373046875E-05	0.529327392578125
218	0.5322265625	11.9517399698248	2.0111083984375E-05	0.53179931640625
219	0.53466796875	11.9761399697632	2.0758056640625E-05	0.534149169921875
220	0.537109375	12.0005399697015	2.19940185546875E-05	0.53662109375
221	0.53955078125	12.0249399696399	2.30987548828125E-05	0.539031982421875
222	0.5419921875	12.0493399695783	2.432861328125E-05	0.54144287109375
223	0.54443359375	12.0737399695167	2.578125E-05	0.543792724609375
224	0.546875	12.0981399694551	2.65533447265625E-05	0.5462646484375
225	0.54931640625	12.1225399693935	2.85186767578125E-05	0.548583984375
226	0.5517578125	12.1469399693319	2.921142578125E-05	0.551025390625
227	0.55419921875	12.1713399692703	3.128662109375E-05	0.553436279296875
228	0.556640625	12.1957399692087	3.2415771484375E-05	0.556488037109375
229	0.55908203125	12.2201399691471	3.40057373046875E-05	0.558990478515625
230	0.5615234375	12.2445399690855	3.5675048828125E-05	0.561431884765625
231	0.56396484375	12.2689399690239	3.7054443359375E-05	0.5638427734375
232	0.56640625	12.2933399689623	3.9208984375E-05	0.566253662109375
233	0.56884765625	12.3177399689007	4.04296875E-05	0.568695068359375
234	0.5712890625	12.3421399688391	4.30206298828125E-05	0.571197509765625
235	0.57373046875	12.3665399687775	4.4415283203125E-05	0.5736083984375
236	0.576171875	12.3909399687159	4.66949462890625E-05	0.576019287109375
237	0.57861328125	12.4153399686543	4.8638916015625E-05	0.578399658203125
238	0.5810546875	12.4397399685927	5.0750732421875E-05	0.580902099609375
239	0.58349609375	12.4641399685311	5.303955078125E-05	0.58331298828125
240	0.5859375	12.4885399684695	5.50537109375E-05	0.58575439453125
241	0.58837890625	12.5129399684079	5.7861328125E-05	0.588134765625
242	0.5908203125	12.5373399683463	5.96923828125E-05	0.590606689453125
243	0.59326171875	12.5617399682847	6.298828125E-05	0.59307861328125
244	0.595703125	12.5861399682231	6.5185546875E-05	0.59552001953125
245	0.59814453125	12.6105399681614	6.829833984375E-05	0.597991943359375
246	0.6005859375	12.6349399680998	7.110595703125E-05	0.600372314453125
247	0.60302734375	12.6593399680382	7.3822021484375E-05	0.60284423828125
248	0.60546875	12.6837399679766	7.696533203125E-05	0.605255126953125
249	0.60791015625	12.708139967915	7.9681396484375E-05	0.60772705078125
250	0.6103515625	12.7325399678534	8.3465576171875E-05	0.610137939453125
251	0.61279296875	12.7569399677918	8.6669921875E-05	0.612579345703125
252	0.615234375	12.7813399677302	9.06982421875E-05	0.614990234375
253	0.61767578125	12.8057399676686	9.3719482421875E-05	0.617401123046875
254	0.6201171875	12.830139967607	9.7869873046875E-05	0.619873046875
255	0.62255859375	12.8545399675454	0.000101806640625	0.622314453125
256	0.625	12.8789399674838	0.00010565185546875	0.62469482421875
257	0.62744140625	12.9033399674222	0.000110260009765625	0.627197265625
258	0.6298828125	12.9277399673606	0.00011468505859375	0.629638671875
259	0.63232421875	12.952139967299	0.000119598388671875	0.631988525390625
260	0.634765625	12.9765399672374	0.0001239013671875	0.6343994140625
261	0.63720703125	13.0009399671758	0.000129486083984375	0.636871337890625
262	0.6396484375	13.0253399671142	0.000134307861328125	0.63934326171875
263	0.64208984375	13.0497399670526	0.000139984130859375	0.6417236328125
264	0.64453125	13.074139966991	0.00014532470703125	0.64410400390625
265	0.64697265625	13.0985399669294	0.000151397705078125	0.6466064453125
266	0.6494140625	13.1229399668678	0.00015771484375	0.6490478515625
267	0.65185546875	13.1473399668062	0.000163787841796875	0.651397705078125
268	0.654296875	13.1717399667446	0.0001710205078125	0.653839111328125
269	0.65673828125	13.1961399666829	0.000177215576171875	0.65625
270	0.6591796875	13.2205399666213	0.00018505859375	0.658721923828125
271	0.66162109375	13.2449399665597	0.000192230224609375	0.6611328125
272	0.6640625	13.2693399664981	0.000199920654296875	0.663543701171875
273	0.66650390625	13.2937399664365	0.0002080078125	0.66595458984375
274	0.6689453125	13.3181399663749	0.00021661376953125	0.668365478515625
275	0.67138671875	13.3425399663133	0.00022528076171875	0.6707763671875
276	0.673828125	13.3669399662517	0.000234222412109375	0.6732177734375
277	0.67626953125	13.3913399661901	0.00024365234375	0.67559814453125
278	0.6787109375	13.4157399661285	0.000253021240234375	0.67803955078125
279	0.68115234375	13.4401399660669	0.000263580322265625	0.680419921875
280	0.68359375	13.4645399660053	0.0002740478515625	0.682891845703125
281	0.68603515625	13.4889399659437	0.000284759521484375	0.685211181640625
282	0.6884765625	13.5133399658821	0.00029595947265625	0.687652587890625
283	0.69091796875	13.5377399658205	0.00030780029296875	0.69000244140625
284	0.693359375	13.5621399657589	0.000319854736328125	0.693115234375
285	0.69580078125	13.5865399656973	0.000332305908203125	0.69561767578125
286	0.6982421875	13.6109399656357	0.000345703125	0.698028564453125
287	0.70068359375	13.6353399655741	0.000358917236328125	0.70050048828125
288	0.703125	13.6597399655125	0.000373138427734375	0.702911376953125
289	0.70556640625	13.6841399654509	0.000386993408203125	0.705352783203125
290	0.7080078125	13.7085399653893	0.00040234375	0.707763671875
291	0.71044921875	13.7329399653277	0.00041754150390625	0.710205078125
292	0.712890625	13.7573399652661	0.00043353271484375	0.712646484375
293	0.71533203125	13.7817399652045	0.000449920654296875	0.715118408203125
294	0.7177734375	13.8061399651428	0.000467010498046875	0.717559814453125
295	0.72021484375	13.8305399650812	0.00048480224609375	0.719940185546875
296	0.72265625	13.8549399650196	0.0005035400390625	0.722412109375
297	0.72509765625	13.879339964958	0.0005224609375	0.72479248046875
298	0.7275390625	13.9037399648964	0.0005413818359375	0.727325439453125
299	0.72998046875	13.9281399648348	0.00056182861328125	0.729705810546875
300	0.732421875	13.9525399647732	0.0005816650390625	0.73211669921875
301	0.73486328125	13.9769399647116	0.0006036376953125	0.734588623046875
302	0.7373046875	14.00133996465	0.00062530517578125	0.737030029296875
303	0.73974609375	14.0257399645884	0.00064788818359375	0.73944091796875
304	0.7421875	14.0501399645268	0.00067138671875	0.74188232421875
305	0.74462890625	14.0745399644652	0.0006951904296875	0.74432373046875
306	0.7470703125	14.0989399644036	0.00072021484375	0.74676513671875
307	0.74951171875	14.123339964342	0.0007452392578125	0.749237060546875
308	0.751953125	14.1477399642804	0.00077117919921875	0.75103759765625
309	0.75439453125	14.1721399642188	0.00079742431640625	0.75347900390625
310	0.7568359375	14.1965399641572	0.00082489013671875	0.7562255859375
311	0.75927734375	14.2209399640956	0.00085235595703125	0.75836181640625
312	0.76171875	14.245339964034	0.00088134765625	0.76080322265625
313	0.76416015625	14.2697399639724	0.00091094970703125	0.76324462890625
314	0.7666015625	14.2941399639108	0.0009405517578125	0.765380859375
315	0.76904296875	14.3185399638492	0.0009722900390625	0.7684326171875
316	0.771484375	14.3429399637876	0.0010028076171875	0.7708740234375
317	0.77392578125	14.367339963726	0.00103607177734375	0.77392578125
318	0.7763671875	14.3917399636643	0.001068115234375	0.7757568359375
319	0.77880859375	14.4161399636027	0.00110260009765625	0.7781982421875
320	0.78125	14.4405399635411	0.00113616943359375	0.78033447265625
321	0.78369140625	14.4649399634795	0.001171875	0.7830810546875
322	0.7861328125	14.4893399634179	0.00120849609375	0.784912109375
323	0.78857421875	14.5137399633563	0.00124481201171875	0.7879638671875
324	0.791015625	14.5381399632947	0.00128326416015625	0.7904052734375
325	0.79345703125	14.5625399632331	0.00132080078125	0.7928466796875
326	0.7958984375	14.5869399631715	0.001361083984375	0.79498291015625
327	0.79833984375	14.6113399631099	0.00139984130859375	0.79742431640625
328	0.80078125	14.6357399630483	0.001441650390625	0.79986572265625
329	0.80322265625	14.6601399629867	0.00148284912109375	0.80169677734375
330	0.8056640625	14.6845399629251	0.00152557373046875	0.80474853515625
331	0.80810546875	14.7089399628635	0.00156890869140625	0.80718994140625
332	0.810546875	14.7333399628019	0.00161163330078125	0.80963134765625
333	0.81298828125	14.7577399627403	0.00165740966796875	0.81207275390625
334	0.8154296875	14.7821399626787	0.00170166015625	0.81451416015625
335	0.81787109375	14.8065399626171	0.001749267578125	0.8172607421875
336	0.8203125	14.8309399625555	0.00179412841796875	0.82000732421875
337	0.82275390625	14.8553399624939	0.00184295654296875	0.8221435546875
338	0.8251953125	14.8797399624323	0.001890869140625	0.8245849609375
339	0.82763671875	14.9041399623707	0.0019403076171875	0.8270263671875
340	0.830078125	14.9285399623091	0.00199005126953125	0.8294677734375
341	0.83251953125	14.9529399622475	0.00203948974609375	0.831298828125
342	0.8349609375	14.9773399621859	0.00209228515625	0.8343505859375
343	0.83740234375	15.0017399621242	0.0021429443359375	0.83709716796875
344	0.83984375	15.0261399620626	0.002197265625	0.8392333984375
345	0.84228515625	15.050539962001	0.00224884033203125	0.84197998046875
346	0.8447265625	15.0749399619394	0.00230438232421875	0.843505859375
347	0.84716796875	15.0993399618778	0.00235870361328125	0.8465576171875
348	0.849609375	15.1237399618162	0.0024139404296875	0.84930419921875
349	0.85205078125	15.1481399617546	0.002470703125	0.85113525390625
350	0.8544921875	15.172539961693	0.00252685546875	0.85357666015625
351	0.85693359375	15.1969399616314	0.00258575439453125	0.8563232421875
352	0.859375	15.2213399615698	0.002642822265625	0.85845947265625
353	0.86181640625	15.2457399615082	0.00270416259765625	0.8612060546875
354	0.8642578125	15.2701399614466	0.00276214599609375	0.863037109375
355	0.86669921875	15.294539961385	0.002823486328125	0.865478515625
356	0.869140625	15.3189399613234	0.002884521484375	0.86822509765625
357	0.87158203125	15.3433399612618	0.00294586181640625	0.87005615234375
358	0.8740234375	15.3677399612002	0.00300933837890625	0.87310791015625
359	0.87646484375	15.3921399611386	0.0030706787109375	0.875244140625
360	0.87890625	15.416539961077	0.00313629150390625	0.87860107421875
361	0.88134765625	15.4409399610154	0.00319854736328125	0.880126953125
362	0.8837890625	15.4653399609538	0.00326507568359375	0.882568359375
363	0.88623046875	15.4897399608922	0.0033282470703125	0.885009765625
364	0.888671875	15.5141399608306	0.0033941650390625	0.8880615234375
365	0.89111328125	15.538539960769	0.0034600830078125	0.889892578125
366	0.8935546875	15.5629399607074	0.00352508544921875	0.892333984375
367	0.89599609375	15.5873399606457	0.0035919189453125	0.89508056640625
368	0.8984375	15.6117399605841	0.00365570068359375	0.89752197265625
369	0.90087890625	15.6361399605225	0.00372314453125	0.899658203125
370	0.9033203125	15.6605399604609	0.00378631591796875	0.90240478515625
371	0.90576171875	15.6849399603993	0.0038525390625	0.9051513671875
372	0.908203125	15.7093399603377	0.00391387939453125	0.90728759765625
373	0.91064453125	15.7337399602761	0.00397674560546875	0.909423828125
374	0.9130859375	15.7581399602145	0.0040380859375	0.911865234375
375	0.91552734375	15.7825399601529	0.00409637451171875	0.9149169921875
376	0.91796875	15.8069399600913	0.00415496826171875	0.9173583984375
377	0.92041015625	15.8313399600297	0.00420928955078125	0.9197998046875
378	0.9228515625	15.8557399599681	0.00426483154296875	0.921630859375
379	0.92529296875	15.8801399599065	0.00431488037109375	0.924072265625
380	0.927734375	15.9045399598449	0.0043658447265625	0.92742919921875
381	0.93017578125	15.9289399597833	0.0044122314453125	0.928955078125
382	0.9326171875	15.9533399597217	0.00445831298828125	0.93170166015625
383	0.93505859375	15.9777399596601	0.0045025634765625	0.933837890625
384	0.9375	16.0021399595985	0.0045440673828125	0.936279296875
385	0.93994140625	16.0265399595369	0.00458526611328125	0.9393310546875
386	0.9423828125	16.0509399594753	0.00462249755859375	0.9417724609375
387	0.94482421875	16.0753399594137	0.00466064453125	0.94390869140625
388	0.947265625	16.0997399593521	0.00469512939453125	0.9466552734375
389	0.94970703125	16.1241399592905	0.004730224609375	0.94970703125
390	0.9521484375	16.1485399592289	0.0047625732421875	0.95123291015625
391	0.95458984375	16.1729399591673	0.0047943115234375	0.953369140625
392	0.95703125	16.1973399591056	0.004825439453125	0.95611572265625
393	0.95947265625	16.221739959044	0.0048541259765625	0.958251953125
394	0.9619140625	16.2461399589824	0.0048834228515625	0.960693359375
395	0.96435546875	16.2705399589208	0.00490997314453125	0.96282958984375
396	0.966796875	16.2949399588592	0.00493743896484375	0.9661865234375
397	0.96923828125	16.3193399587976	0.0049627685546875	0.96832275390625
398	0.9716796875	16.343739958736	0.0049884033203125	0.97076416015625
399	0.97412109375	16.3681399586744	0.00501251220703125	0.97320556640625
400	0.9765625	16.3925399586128	0.0050360107421875	0.975341796875
401	0.97900390625	16.4169399585512	0.00505950927734375	0.9783935546875
402	0.9814453125	16.4413399584896	0.005081787109375	0.9808349609375
403	0.98388671875	16.465739958428	0.00510406494140625	0.9832763671875
404	0.986328125	16.4901399583664	0.00512451171875	0.98541259765625
405	0.98876953125	16.5145399583048	0.0051458740234375	0.98846435546875
406	0.9912109375	16.5389399582432	0.00516571044921875	0.989990234375
407	0.99365234375	16.5633399581816	0.00518585205078125	0.9930419921875
408	0.99609375	16.58773995812	0.005205078125	0.99517822265625
409	0.99853515625	16.6121399580584	0.0052239990234375	0.99761962890625
410	1.0009765625	16.6365399579968	0.005242919921875	1.00006103515625
411	1.00341796875	16.6609399579352	0.00526092529296875	1.00250244140625
412	1.005859375	16.6853399578736	0.0052789306640625	1.00494384765625
413	1.00830078125	16.709739957812	0.0052960205078125	1.00738525390625
414	1.0107421875	16.7341399577504	0.005313720703125	1.0101318359375
415	1.01318359375	16.7585399576888	0.0053302001953125	1.01287841796875
416	1.015625	16.7829399576271	0.00534698486328125	1.01470947265625
417	1.01806640625	16.8073399575655	0.0053631591796875	1.016845703125
418	1.0205078125	16.8317399575039	0.0053790283203125	1.01898193359375
419	1.02294921875	16.8561399574423	0.0053948974609375	1.021728515625
420	1.025390625	16.8805399573807	0.00541015625	1.02447509765625
421	1.02783203125	16.9049399573191	0.0054254150390625	1.026611328125
422	1.0302734375	16.9293399572575	0.0054400634765625	1.02935791015625
423	1.03271484375	16.9537399571959	0.00545501708984375	1.031494140625
424	1.03515625	16.9781399571343	0.0054693603515625	1.03424072265625
425	1.03759765625	17.0025399570727	0.00548370361328125	1.03668212890625
426	1.0400390625	17.0269399570111	0.00549774169921875	1.038818359375
427	1.04248046875	17.0513399569495	0.005511474609375	1.04095458984375
428	1.044921875	17.0757399568879	0.0055255126953125	1.0443115234375
429	1.04736328125	17.1001399568263	0.00553863525390625	1.0467529296875
430	1.0498046875	17.1245399567647	0.00555206298828125	1.04949951171875
431	1.05224609375	17.1489399567031	0.00556488037109375	1.05072021484375
432	1.0546875	17.1733399566415	0.0055780029296875	1.0540771484375
433	1.05712890625	17.1977399565799	0.0055908203125	1.05621337890625
434	1.0595703125	17.2221399565183	0.0056036376953125	1.058349609375
435	1.06201171875	17.2465399564567	0.00561614990234375	1.060791015625
436	1.064453125	17.2709399563951	0.0056280517578125	1.06353759765625
437	1.06689453125	17.2953399563335	0.00564056396484375	1.065673828125
438	1.0693359375	17.3197399562719	0.00565216064453125	1.068115234375
439	1.07177734375	17.3441399562103	0.00566436767578125	1.07086181640625
440	1.07421875	17.3685399561487	0.00567596435546875	1.072998046875
441	1.07666015625	17.392939956087	0.00568756103515625	1.075439453125
442	1.0791015625	17.4173399560254	0.00569915771484375	1.07818603515625
443	1.08154296875	17.4417399559638	0.00571044921875	1.0809326171875
444	1.083984375	17.4661399559022	0.005721435546875	1.08245849609375
445	1.08642578125	17.4905399558406	0.005732421875	1.08489990234375
446	1.0888671875	17.514939955779	0.00574371337890625	1.0882568359375
447	1.09130859375	17.5393399557174	0.00575439453125	1.09039306640625
448	1.09375	17.5637399556558	0.005765380859375	1.0931396484375
449	1.09619140625	17.5881399555942	0.0057757568359375	1.094970703125
450	1.0986328125	17.6125399555326	0.00578643798828125	1.0980224609375
451	1.10107421875	17.636939955471	0.00579681396484375	1.10015869140625
452	1.103515625	17.6613399554094	0.00580718994140625	1.102294921875
453	1.10595703125	17.6857399553478	0.0058172607421875	1.10565185546875
454	1.1083984375	17.7101399552862	0.00582733154296875	1.1065673828125
455	1.11083984375	17.7345399552246	0.00583770751953125	1.109619140625
456	1.11328125	17.758939955163	0.00584747314453125	1.11236572265625
457	1.11572265625	17.7833399551014	0.0058575439453125	1.114501953125
458	1.1181640625	17.8077399550398	0.0058673095703125	1.116943359375
459	1.12060546875	17.8321399549782	0.0058770751953125	1.11968994140625
460	1.123046875	17.8565399549166	0.00588653564453125	1.12213134765625
461	1.12548828125	17.880939954855	0.00589630126953125	1.12457275390625
462	1.1279296875	17.9053399547934	0.00590576171875	1.126708984375
463	1.13037109375	17.9297399547318	0.0059149169921875	1.12945556640625
464	1.1328125	17.9541399546702	0.0059246826171875	1.13189697265625
465	1.13525390625	17.9785399546086	0.005933837890625	1.13433837890625
466	1.1376953125	18.0029399545469	0.0059429931640625	1.13677978515625
467	1.14013671875	18.0273399544853	0.0059521484375	1.138916015625
468	1.142578125	18.0517399544237	0.00596099853515625	1.14105224609375
469	1.14501953125	18.0761399543621	0.00597015380859375	1.143798828125
470	1.1474609375	18.1005399543005	0.00597900390625	1.146240234375
471	1.14990234375	18.1249399542389	0.00598785400390625	1.148681640625
472	1.15234375	18.1493399541773	0.00599639892578125	1.151123046875
473	1.15478515625	18.1737399541157	0.0060052490234375	1.153564453125
474	1.1572265625	18.1981399540541	0.0060137939453125	1.15631103515625
475	1.15966796875	18.2225399539925	0.00602264404296875	1.1590576171875
476	1.162109375	18.2469399539309	0.0060308837890625	1.160888671875
477	1.16455078125	18.2713399538693	0.0060394287109375	1.16363525390625
478	1.1669921875	18.2957399538077	0.0060479736328125	1.1651611328125
479	1.16943359375	18.3201399537461	0.00605621337890625	1.168212890625
480	1.171875	18.3445399536845	0.006064453125	1.170654296875
481	1.17431640625	18.3689399536229	0.00607269287109375	1.17279052734375
482	1.1767578125	18.3933399535613	0.0060809326171875	1.17523193359375
483	1.17919921875	18.4177399534997	0.0060888671875	1.17767333984375
484	1.181640625	18.4421399534381	0.00609710693359375	1.18011474609375
485	1.18408203125	18.4665399533765	0.00610504150390625	1.18316650390625
486	1.1865234375	18.4909399533149	0.00611297607421875	1.18560791015625
487	1.18896484375	18.5153399532533	0.00612091064453125	1.187744140625
488	1.19140625	18.5397399531917	0.00612884521484375	1.19049072265625
489	1.19384765625	18.5641399531301	0.00613677978515625	1.192626953125
490	1.1962890625	18.5885399530684	0.0061444091796875	1.19476318359375
491	1.19873046875	18.6129399530068	0.00615203857421875	1.19781494140625
492	1.201171875	18.6373399529452	0.00615966796875	1.20025634765625
493	1.19873046875	18.6617399528836	0.00614715576171875	1.1981201171875
494	1.1962890625	18.686139952822	0.00613433837890625	1.1944580078125
495	1.19384765625	18.7105399527604	0.0061212158203125	1.19293212890625
496	1.19140625	18.7349399526988	0.0061083984375	1.19049072265625
497	1.18896484375	18.7593399526372	0.006094970703125	1.18804931640625
498	1.1865234375	18.7837399525756	0.00608184814453125	1.18560791015625
499	1.18408203125	18.808139952514	0.00606842041015625	1.18316650390625
500	1.181640625	18.8325399524524	0.00605499267578125	1.180419921875
501	1.17919921875	18.8569399523908	0.006041259765625	1.17828369140625
502	1.1767578125	18.8813399523292	0.00602752685546875	1.17584228515625
503	1.17431640625	18.9057399522676	0.00601348876953125	1.173095703125
504	1.171875	18.930139952206	0.00599945068359375	1.17095947265625
505	1.16943359375	18.9545399521444	0.005985107421875	1.168212890625
506	1.1669921875	18.9789399520828	0.00597076416015625	1.165771484375
507	1.16455078125	19.0033399520212	0.00595611572265625	1.16302490234375
508	1.162109375	19.0277399519596	0.005941162109375	1.160888671875
509	1.15966796875	19.052139951898	0.005926513671875	1.15814208984375
510	1.1572265625	19.0765399518364	0.0059112548828125	1.15631103515625
511	1.15478515625	19.1009399517748	0.00589599609375	1.15386962890625
512	1.15234375	19.1253399517132	0.00588043212890625	1.151123046875
513	1.14990234375	19.1497399516516	0.0058648681640625	1.148681640625
514	1.1474609375	19.17413995159	0.0058489990234375	1.14593505859375
515	1.14501953125	19.1985399515283	0.00583282470703125	1.14471435546875
516	1.142578125	19.2229399514667	0.005816650390625	1.141357421875
517	1.14013671875	19.2473399514051	0.00579986572265625	1.13922119140625
518	1.1376953125	19.2717399513435	0.0057830810546875	1.136474609375
519	1.13525390625	19.2961399512819	0.0057659912109375	1.1346435546875
520	1.1328125	19.3205399512203	0.0057489013671875	1.1309814453125
521	1.13037109375	19.3449399511587	0.005731201171875	1.1297607421875
522	1.1279296875	19.3693399510971	0.00571319580078125	1.12640380859375
523	1.12548828125	19.3937399510355	0.0056951904296875	1.12396240234375
524	1.123046875	19.4181399509739	0.0056768798828125	1.12213134765625
525	1.12060546875	19.4425399509123	0.00565826416015625	1.11968994140625
526	1.1181640625	19.4669399508507	0.0056390380859375	1.1175537109375
527	1.11572265625	19.4913399507891	0.00561981201171875	1.11480712890625
528	1.11328125	19.5157399507275	0.0055999755859375	1.1114501953125
529	1.11083984375	19.5401399506659	0.005579833984375	1.1102294921875
530	1.1083984375	19.5645399506043	0.00555938720703125	1.1077880859375
531	1.10595703125	19.5889399505427	0.005538330078125	1.10443115234375
532	1.103515625	19.6133399504811	0.00551727294921875	1.102294921875
533	1.10107421875	19.6377399504195	0.00549530029296875	1.099853515625
534	1.0986328125	19.6621399503579	0.00547332763671875	1.097412109375
535	1.09619140625	19.6865399502963	0.005450439453125	1.094970703125
536	1.09375	19.7109399502347	0.00542724609375	1.09283447265625
537	1.09130859375	19.7353399501731	0.00540374755859375	1.090087890625
538	1.0888671875	19.7597399501115	0.00537933349609375	1.0882568359375
539	1.08642578125	19.7841399500498	0.0053546142578125	1.0858154296875
540	1.083984375	19.8085399499882	0.00532867431640625	1.0833740234375
541	1.08154296875	19.8329399499266	0.005302734375	1.080322265625
542	1.0791015625	19.857339949865	0.00527557373046875	1.07818603515625
543	1.07666015625	19.8817399498034	0.00524810791015625	1.07574462890625
544	1.07421875	19.9061399497418	0.0052191162109375	1.072998046875
545	1.07177734375	19.9305399496802	0.0051898193359375	1.0711669921875
546	1.0693359375	19.9549399496186	0.00515960693359375	1.0693359375
547	1.06689453125	19.979339949557	0.005128173828125	1.06597900390625
548	1.064453125	20.0037399494954	0.0050958251953125	1.063232421875
549	1.06201171875	20.0281399494338	0.00506195068359375	1.06109619140625
550	1.0595703125	20.0525399493722	0.0050274658203125	1.05865478515625
551	1.05712890625	20.0769399493106	0.0049908447265625	1.05621337890625
552	1.0546875	20.101339949249	0.0049530029296875	1.0540771484375
553	1.05224609375	20.1257399491874	0.004913330078125	1.05133056640625
554	1.0498046875	20.1501399491258	0.00487213134765625	1.048583984375
555	1.04736328125	20.1745399490642	0.00482879638671875	1.04644775390625
556	1.044921875	20.1989399490026	0.0047833251953125	1.0443115234375
557	1.04248046875	20.223339948941	0.0047357177734375	1.041259765625
558	1.0400390625	20.2477399488794	0.00468475341796875	1.038818359375
559	1.03759765625	20.2721399488178	0.00463165283203125	1.036376953125
560	1.03515625	20.2965399487562	0.00457489013671875	1.0345458984375
561	1.03271484375	20.3209399486946	0.004515380859375	1.031494140625
562	1.0302734375	20.345339948633	0.0044512939453125	1.02935791015625
563	1.02783203125	20.3697399485714	0.0043841552734375	1.026611328125
564	1.025390625	20.3941399485097	0.00431304931640625	1.024169921875
565	1.02294921875	20.4185399484481	0.0042376708984375	1.02203369140625
566	1.0205078125	20.4429399483865	0.004158935546875	1.01959228515625
567	1.01806640625	20.4673399483249	0.0040753173828125	1.01654052734375
568	1.015625	20.4917399482633	0.003990478515625	1.0150146484375
569	1.01318359375	20.5161399482017	0.0039019775390625	1.01226806640625
570	1.0107421875	20.5405399481401	0.00381317138671875	1.009521484375
571	1.00830078125	20.5649399480785	0.00372161865234375	1.00677490234375
572	1.005859375	20.5893399480169	0.0036309814453125	1.00494384765625
573	1.00341796875	20.6137399479553	0.0035406494140625	1.0028076171875
574	1.0009765625	20.6381399478937	0.00345001220703125	1.00006103515625
575	0.99853515625	20.6625399478321	0.00336090087890625	0.9979248046875
576	0.99609375	20.6869399477705	0.003271484375	0.99517822265625
577	0.99365234375	20.7113399477089	0.0031854248046875	0.992431640625
578	0.9912109375	20.7357399476473	0.00309906005859375	0.99029541015625
579	0.98876953125	20.7601399475857	0.00301544189453125	0.9881591796875
580	0.986328125	20.7845399475241	0.00293212890625	0.985107421875
581	0.98388671875	20.8089399474625	0.0028515625	0.9832763671875
582	0.9814453125	20.8333399474009	0.0027728271484375	0.9808349609375
583	0.97900390625	20.8577399473393	0.0026947021484375	0.97747802734375
584	0.9765625	20.8821399472777	0.00261932373046875	0.975341796875
585	0.97412109375	20.9065399472161	0.00254364013671875	0.97320556640625
586	0.9716796875	20.9309399471545	0.002471923828125	0.9710693359375
587	0.96923828125	20.9553399470929	0.00240081787109375	0.9686279296875
588	0.966796875	20.9797399470312	0.0023321533203125	0.96588134765625
589	0.96435546875	21.0041399469696	0.002264404296875	0.963134765625
590	0.9619140625	21.028539946908	0.002198486328125	0.960693359375
591	0.95947265625	21.0529399468464	0.00213531494140625	0.958251953125
592	0.95703125	21.0773399467848	0.0020721435546875	0.9564208984375
593	0.95458984375	21.1017399467232	0.00201202392578125	0.953369140625
594	0.9521484375	21.1261399466616	0.001951904296875	0.95123291015625
595	0.94970703125	21.1505399466	0.00189483642578125	0.948486328125
596	0.947265625	21.1749399465384	0.001839599609375	0.94635009765625
597	0.94482421875	21.1993399464768	0.0017852783203125	0.9442138671875
598	0.9423828125	21.2237399464152	0.001732177734375	0.94146728515625
599	0.93994140625	21.2481399463536	0.001680908203125	0.93902587890625
600	0.9375	21.272539946292	0.00163177490234375	0.93658447265625
601	0.93505859375	21.2969399462304	0.00158233642578125	0.933837890625
602	0.9326171875	21.3213399461688	0.0015362548828125	0.93170166015625
603	0.93017578125	21.3457399461072	0.0014898681640625	0.92926025390625
604	0.927734375	21.3701399460456	0.00144683837890625	0.92681884765625
605	0.92529296875	21.394539945984	0.00140411376953125	0.9234619140625
606	0.9228515625	21.4189399459224	0.0013629150390625	0.921630859375
607	0.92041015625	21.4433399458608	0.0013232421875	0.9197998046875
608	0.91796875	21.4677399457992	0.0012841796875	0.91705322265625
609	0.91552734375	21.4921399457376	0.0012469482421875	0.91461181640625
610	0.9130859375	21.516539945676	0.00121063232421875	0.9124755859375
611	0.91064453125	21.5409399456144	0.00117584228515625	0.91033935546875
612	0.908203125	21.5653399455528	0.0011419677734375	0.90728759765625
613	0.90576171875	21.5897399454911	0.00110992431640625	0.904541015625
614	0.9033203125	21.6141399454295	0.0010784912109375	0.9027099609375
615	0.90087890625	21.6385399453679	0.00104736328125	0.89996337890625
616	0.8984375	21.6629399453063	0.00101776123046875	0.89752197265625
617	0.89599609375	21.6873399452447	0.00098907470703125	0.89508056640625
618	0.8935546875	21.7117399451831	0.00096221923828125	0.892333984375
619	0.89111328125	21.7361399451215	0.00093536376953125	0.889892578125
620	0.888671875	21.7605399450599	0.0009100341796875	0.887451171875
621	0.88623046875	21.7849399449983	0.0008856201171875	0.88531494140625
622	0.8837890625	21.8093399449367	0.00086151123046875	0.8831787109375
623	0.88134765625	21.8337399448751	0.00083892822265625	0.88043212890625
624	0.87890625	21.8581399448135	0.00081634521484375	0.87799072265625
625	0.87646484375	21.8825399447519	0.00079498291015625	0.87615966796875
626	0.8740234375	21.9069399446903	0.00077392578125	0.8734130859375
627	0.87158203125	21.9313399446287	0.00075439453125	0.87066650390625
628	0.869140625	21.9557399445671	0.00073486328125	0.86822509765625
629	0.86669921875	21.9801399445055	0.00071563720703125	0.865478515625
630	0.8642578125	22.0045399444439	0.00069793701171875	0.863037109375
631	0.86181640625	22.0289399443823	0.000679931640625	0.860595703125
632	0.859375	22.0533399443207	0.0006634521484375	0.8587646484375
633	0.85693359375	22.0777399442591	0.00064666748046875	0.85540771484375
634	0.8544921875	22.1021399441975	0.00063079833984375	0.85418701171875
635	0.85205078125	22.1265399441359	0.000615234375	0.8514404296875
636	0.849609375	22.1509399440743	0.0006005859375	0.84930419921875
637	0.84716796875	22.1753399440126	0.00058624267578125	0.84625244140625
638	0.8447265625	22.199739943951	0.0005718994140625	0.84320068359375
639	0.84228515625	22.2241399438894	0.0005584716796875	0.8416748046875
640	0.83984375	22.2485399438278	0.00054534912109375	0.8392333984375
641	0.83740234375	22.2729399437662	0.0005328369140625	0.8367919921875
642	0.8349609375	22.2973399437046	0.00052001953125	0.83404541015625
643	0.83251953125	22.321739943643	0.0005078125	0.831298828125
644	0.830078125	22.3461399435814	0.000495880126953125	0.82977294921875
645	0.82763671875	22.3705399435198	0.000484283447265625	0.8270263671875
646	0.8251953125	22.3949399434582	0.000473541259765625	0.8245849609375
647	0.82275390625	22.4193399433966	0.000462432861328125	0.8221435546875
648	0.8203125	22.443739943335	0.000452392578125	0.8197021484375
649	0.81787109375	22.4681399432734	0.00044219970703125	0.816650390625
650	0.8154296875	22.4925399432118	0.000432403564453125	0.81451416015625
651	0.81298828125	22.5169399431502	0.0004228515625	0.811767578125
652	0.810546875	22.5413399430886	0.00041351318359375	0.80902099609375
653	0.80810546875	22.565739943027	0.000404205322265625	0.806884765625
654	0.8056640625	22.5901399429654	0.00039520263671875	0.8050537109375
655	0.80322265625	22.6145399429038	0.000386962890625	0.802001953125
656	0.80078125	22.6389399428422	0.000377777099609375	0.79986572265625
657	0.79833984375	22.6633399427806	0.000370147705078125	0.79742431640625
658	0.7958984375	22.687739942719	0.0003616943359375	0.794677734375
659	0.79345703125	22.7121399426574	0.00035400390625	0.79254150390625
660	0.791015625	22.7365399425958	0.000346160888671875	0.789794921875
661	0.78857421875	22.7609399425342	0.000338623046875	0.787353515625
662	0.7861328125	22.7853399424725	0.000331390380859375	0.78521728515625
663	0.78369140625	22.8097399424109	0.000323944091796875	0.78338623046875
664	0.78125	22.8341399423493	0.000317291259765625	0.780029296875
665	0.77880859375	22.8585399422877	0.000309906005859375	0.77880859375
666	0.7763671875	22.8829399422261	0.00030352783203125	0.77545166015625
667	0.77392578125	22.9073399421645	0.000296722412109375	0.77301025390625
668	0.771484375	22.9317399421029	0.000290252685546875	0.77056884765625
669	0.76904296875	22.9561399420413	0.00028375244140625	0.76873779296875
670	0.7666015625	22.9805399419797	0.00027734375	0.765380859375
671	0.76416015625	23.0049399419181	0.000271881103515625	0.76324462890625
672	0.76171875	23.0293399418565	0.00026544189453125	0.7611083984375
673	0.75927734375	23.0537399417949	0.000259857177734375	0.7586669921875
674	0.7568359375	23.0781399417333	0.00025390625	0.75592041015625
675	0.75439453125	23.1025399416717	0.000248809814453125	0.75408935546875
676	0.751953125	23.1269399416101	0.00024298095703125	0.7513427734375
677	0.74951171875	23.1513399415485	0.000237640380859375	0.749267578125
678	0.7470703125	23.1757399414869	0.000232696533203125	0.746856689453125
679	0.74462890625	23.2001399414253	0.00022723388671875	0.744384765625
680	0.7421875	23.2245399413637	0.00022247314453125	0.741912841796875
681	0.73974609375	23.2489399413021	0.000217071533203125	0.739501953125
682	0.7373046875	23.2733399412405	0.000212738037109375	0.737152099609375
683	0.73486328125	23.2977399411789	0.000207427978515625	0.734588623046875
684	0.732421875	23.3221399411173	0.0002030029296875	0.73223876953125
685	0.72998046875	23.3465399410557	0.00019805908203125	0.729827880859375
686	0.7275390625	23.370939940994	0.000193359375	0.727325439453125
687	0.72509765625	23.3953399409324	0.000189239501953125	0.724884033203125
688	0.72265625	23.4197399408708	0.00018463134765625	0.722442626953125
689	0.72021484375	23.4441399408092	0.000180938720703125	0.720001220703125
690	0.7177734375	23.4685399407476	0.0001761474609375	0.717529296875
691	0.71533203125	23.492939940686	0.00017266845703125	0.71514892578125
692	0.712890625	23.5173399406244	0.000167999267578125	0.712677001953125
693	0.71044921875	23.5417399405628	0.000164459228515625	0.71026611328125
694	0.7080078125	23.5661399405012	0.00016015625	0.707794189453125
695	0.70556640625	23.5905399404396	0.00015643310546875	0.705413818359375
696	0.703125	23.614939940378	0.000152923583984375	0.70294189453125
697	0.70068359375	23.6393399403164	0.000148712158203125	0.700531005859375
698	0.6982421875	23.6637399402548	0.000145843505859375	0.698028564453125
699	0.69580078125	23.6881399401932	0.000141632080078125	0.695556640625
700	0.693359375	23.7125399401316	0.0001387939453125	0.69317626953125
701	0.69091796875	23.73693994007	0.000135040283203125	0.69073486328125
702	0.6884765625	23.7613399400084	0.00013201904296875	0.68829345703125
703	0.68603515625	23.7857399399468	0.0001282958984375	0.685882568359375
704	0.68359375	23.8101399398852	0.000124969482421875	0.683380126953125
705	0.68115234375	23.8345399398236	0.00012225341796875	0.680999755859375
706	0.6787109375	23.858939939762	0.000118621826171875	0.678558349609375
707	0.67626953125	23.8833399397004	0.0001162109375	0.6761474609375
708	0.673828125	23.9077399396388	0.00011285400390625	0.673675537109375
709	0.67138671875	23.9321399395772	0.000110504150390625	0.671234130859375
710	0.6689453125	23.9565399395156	0.000107208251953125	0.668853759765625
711	0.66650390625	23.9809399394539	0.000104522705078125	0.666351318359375
712	0.6640625	24.0053399393923	0.00010186767578125	0.663909912109375
713	0.66162109375	24.0297399393307	9.906005859375E-05	0.661468505859375
714	0.6591796875	24.0541399392691	9.6588134765625E-05	0.6590576171875
715	0.65673828125	24.0785399392075	9.3414306640625E-05	0.6566162109375
716	0.654296875	24.1029399391459	9.161376953125E-05	0.654144287109375
717	0.65185546875	24.1273399390843	8.8714599609375E-05	0.6517333984375
718	0.6494140625	24.1517399390227	8.65478515625E-05	0.649078369140625
719	0.64697265625	24.1761399389611	8.367919921875E-05	0.646759033203125
720	0.64453125	24.2005399388995	8.154296875E-05	0.644256591796875
721	0.64208984375	24.2249399388379	7.9498291015625E-05	0.641845703125
722	0.6396484375	24.2493399387763	7.6690673828125E-05	0.639495849609375
723	0.63720703125	24.2737399387147	7.5103759765625E-05	0.637054443359375
724	0.634765625	24.2981399386531	7.21435546875E-05	0.63458251953125
725	0.63232421875	24.3225399385915	7.0404052734375E-05	0.6322021484375
726	0.6298828125	24.3469399385299	6.7901611328125E-05	0.629669189453125
727	0.62744140625	24.3713399384683	6.62841796875E-05	0.627288818359375
728	0.625	24.3957399384067	6.390380859375E-05	0.624847412109375
729	0.62255859375	24.4201399383451	6.182861328125E-05	0.622406005859375
730	0.6201171875	24.4445399382835	6.011962890625E-05	0.619903564453125
731	0.61767578125	24.4689399382219	5.804443359375E-05	0.617523193359375
732	0.615234375	24.4933399381603	5.6732177734375E-05	0.615020751953125
733	0.61279296875	24.5177399380987	5.43212890625E-05	0.612640380859375
734	0.6103515625	24.5421399380371	5.316162109375E-05	0.61016845703125
735	0.60791015625	24.5665399379754	5.084228515625E-05	0.6077880859375
736	0.60546875	24.5909399379138	4.949951171875E-05	0.60528564453125
737	0.60302734375	24.6153399378522	4.7650146484375E-05	0.6029052734375
738	0.6005859375	24.6397399377906	4.61944580078125E-05	0.60040283203125
739	0.59814453125	24.664139937729	4.48333740234375E-05	0.597991943359375
740	0.595703125	24.6885399376674	4.2987060546875E-05	0.5955810546875
741	0.59326171875	24.7129399376058	4.2230224609375E-05	0.593109130859375
742	0.5908203125	24.7373399375442	4.002685546875E-05	0.5906982421875
743	0.58837890625	24.7617399374826	3.914794921875E-05	0.588226318359375
744	0.5859375	24.786139937421	3.7347412109375E-05	0.585784912109375
745	0.58349609375	24.8105399373594	3.6260986328125E-05	0.583343505859375
746	0.5810546875	24.8349399372978	3.47869873046875E-05	0.58087158203125
747	0.57861328125	24.8593399372362	3.31756591796875E-05	0.578460693359375
748	0.576171875	24.8837399371746	3.22418212890625E-05	0.576019287109375
749	0.57373046875	24.908139937113	3.0682373046875E-05	0.573638916015625
750	0.5712890625	24.9325399370514	3.009033203125E-05	0.571197509765625
751	0.56884765625	24.9569399369898	2.81219482421875E-05	0.5687255859375
752	0.56640625	24.9813399369282	2.74993896484375E-05	0.566314697265625
753	0.56396484375	25.0057399368666	2.61444091796875E-05	0.56378173828125
754	0.5615234375	25.030139936805	2.50946044921875E-05	0.561431884765625
755	0.55908203125	25.0545399367434	2.4102783203125E-05	0.55902099609375
756	0.556640625	25.0789399366818	2.28240966796875E-05	0.556549072265625
757	0.55419921875	25.1033399366202	2.19512939453125E-05	0.554107666015625
758	0.5517578125	25.1277399365586	2.03369140625E-05	0.551666259765625
759	0.54931640625	25.152139936497	1.998291015625E-05	0.54925537109375
760	0.546875	25.1765399364353	1.84173583984375E-05	0.5467529296875
761	0.54443359375	25.2009399363737	1.798095703125E-05	0.544342041015625
762	0.5419921875	25.2253399363121	1.671142578125E-05	0.541900634765625
763	0.53955078125	25.2497399362505	1.6070556640625E-05	0.539459228515625
764	0.537109375	25.2741399361889	1.51580810546875E-05	0.53704833984375
765	0.53466796875	25.2985399361273	1.400146484375E-05	0.53460693359375
766	0.5322265625	25.3229399360657	1.383056640625E-05	0.532135009765625
767	0.52978515625	25.3473399360041	1.24664306640625E-05	0.52972412109375
768	0.52734375	25.3717399359425	1.2261962890625E-05	0.527252197265625
769	0.52490234375	25.3961399358809	1.07574462890625E-05	0.524810791015625
770	0.5224609375	25.4205399358193	1.041259765625E-05	0.52239990234375
771	0.52001953125	25.4449399357577	9.466552734375E-06	0.51995849609375
772	0.517578125	25.4693399356961	8.92333984375E-06	0.51751708984375
773	0.51513671875	25.4937399356345	8.3465576171875E-06	0.515106201171875
774	0.5126953125	25.5181399355729	7.12890625E-06	0.5125732421875
775	0.51025390625	25.5425399355113	7.1746826171875E-06	0.51019287109375
776	0.5078125	25.5669399354497	6.0089111328125E-06	0.50762939453125
777	0.50537109375	25.5913399353881	6.103515625E-06	0.50518798828125
778	0.5029296875	25.6157399353265	4.974365234375E-06	0.502777099609375
779	0.50048828125	25.6401399352649	4.681396484375E-06	0.50030517578125
780	0.498046875	25.6645399352033	3.88214111328125E-06	0.497894287109375
781	0.49560546875	25.6889399351417	3.28704833984375E-06	0.495513916015625
782	0.4931640625	25.7133399350801	2.7703857421875E-06	0.4930419921875
783	0.49072265625	25.7377399350185	1.89361572265625E-06	0.490631103515625
784	0.48828125	25.7621399349568	1.88262939453125E-06	0.488189697265625
785	0.48583984375	25.7865399348952	6.488037109375E-07	0.485748291015625
786	0.4833984375	25.8109399348336	6.3018798828125E-07	0.48333740234375
787	0.48095703125	25.835339934772	-3.8543701171875E-07	0.48089599609375
788	0.478515625	25.8597399347104	-5.224609375E-07	0.478515625
789	0.47607421875	25.8841399346488	-1.142578125E-06	0.47601318359375
790	0.4736328125	25.9085399345872	-1.553955078125E-06	0.47369384765625
791	0.47119140625	25.9329399345256	-1.88995361328125E-06	0.47119140625
792	0.46875	25.957339934464	-2.9522705078125E-06	0.468780517578125
793	0.46630859375	25.9817399344024	-2.5579833984375E-06	0.46636962890625
794	0.4638671875	26.0061399343408	-3.6163330078125E-06	0.46392822265625
795	0.46142578125	26.0305399342792	-3.45428466796875E-06	0.46142578125
796	0.458984375	26.0549399342176	-4.2437744140625E-06	0.458984375
797	0.45654296875	26.079339934156	-4.4769287109375E-06	0.45660400390625
798	0.4541015625	26.1037399340944	-4.833984375E-06	0.454132080078125
799	0.45166015625	26.1281399340328	-5.26123046875E-06	0.451629638671875
800	0.44921875	26.1525399339712	-5.3466796875E-06	0.44921875
801	0.44677734375	26.1769399339096	-6.1370849609375E-06	0.44683837890625
802	0.4443359375	26.201339933848	-5.8624267578125E-06	0.4443359375
803	0.44189453125	26.2257399337864	-6.9183349609375E-06	0.441925048828125
804	0.439453125	26.2501399337248	-6.5948486328125E-06	0.439422607421875
805	0.43701171875	26.2745399336632	-7.3394775390625E-06	0.437042236328125
806	0.4345703125	26.2989399336016	-7.489013671875E-06	0.4346923828125
807	0.43212890625	26.32333993354	-7.9437255859375E-06	0.4322509765625
808	0.4296875	26.3477399334784	-8.160400390625E-06	0.42974853515625
809	0.42724609375	26.3721399334167	-8.0078125E-06	0.42730712890625
810	0.4248046875	26.3965399333551	-8.9813232421875E-06	0.424896240234375
811	0.42236328125	26.4209399332935	-8.6212158203125E-06	0.42242431640625
812	0.419921875	26.4453399332319	-9.393310546875E-06	0.420013427734375
813	0.41748046875	26.4697399331703	-9.185791015625E-06	0.4176025390625
814	0.4150390625	26.4941399331087	-9.9029541015625E-06	0.415191650390625
815	0.41259765625	26.5185399330471	-1.01287841796875E-05	0.4127197265625
816	0.41015625	26.5429399329855	-1.03118896484375E-05	0.4102783203125
817	0.40771484375	26.5673399329239	-1.08551025390625E-05	0.407867431640625
818	0.4052734375	26.5917399328623	-1.05804443359375E-05	0.4053955078125
819	0.40283203125	26.6161399328007	-1.12823486328125E-05	0.40301513671875
820	0.400390625	26.6405399327391	-1.08673095703125E-05	0.4005126953125
821	0.39794921875	26.6649399326775	-1.16424560546875E-05	0.398040771484375
822	0.3955078125	26.6893399326159	-1.14776611328125E-05	0.395660400390625
823	0.39306640625	26.7137399325543	-1.21826171875E-05	0.393218994140625
824	0.390625	26.7381399324927	-1.226806640625E-05	0.390777587890625
825	0.38818359375	26.7625399324311	-1.23626708984375E-05	0.3883056640625
826	0.3857421875	26.7869399323695	-1.2847900390625E-05	0.3858642578125
827	0.38330078125	26.8113399323079	-1.2799072265625E-05	0.383514404296875
828	0.380859375	26.8357399322463	-1.365966796875E-05	0.381011962890625
829	0.37841796875	26.8601399321847	-1.30859375E-05	0.378631591796875
830	0.3759765625	26.8845399321231	-1.39739990234375E-05	0.376129150390625
831	0.37353515625	26.9089399320615	-1.36444091796875E-05	0.373687744140625
832	0.37109375	26.9333399319999	-1.40472412109375E-05	0.37127685546875
833	0.36865234375	26.9577399319382	-1.44195556640625E-05	0.36883544921875
834	0.3662109375	26.9821399318766	-1.43646240234375E-05	0.366363525390625
835	0.36376953125	27.006539931815	-1.46759033203125E-05	0.363922119140625
836	0.361328125	27.0309399317534	-1.4422607421875E-05	0.36151123046875
837	0.35888671875	27.0553399316918	-1.51763916015625E-05	0.359100341796875
838	0.3564453125	27.0797399316302	-1.47369384765625E-05	0.35662841796875
839	0.35400390625	27.1041399315686	-1.5362548828125E-05	0.354156494140625
840	0.3515625	27.128539931507	-1.51031494140625E-05	0.3516845703125
841	0.34912109375	27.1529399314454	-1.54815673828125E-05	0.349273681640625
842	0.3466796875	27.1773399313838	-1.568603515625E-05	0.346832275390625
843	0.34423828125	27.2017399313222	-1.56036376953125E-05	0.34442138671875
844	0.341796875	27.2261399312606	-1.61834716796875E-05	0.342041015625
845	0.33935546875	27.250539931199	-1.56707763671875E-05	0.339569091796875
846	0.3369140625	27.2749399311374	-1.66259765625E-05	0.337066650390625
847	0.33447265625	27.2993399310758	-1.60736083984375E-05	0.334716796875
848	0.33203125	27.3237399310142	-1.66748046875E-05	0.332275390625
849	0.32958984375	27.3481399309526	-1.6546630859375E-05	0.329803466796875
850	0.3271484375	27.372539930891	-1.68914794921875E-05	0.327392578125
851	0.32470703125	27.3969399308294	-1.7352294921875E-05	0.324951171875
852	0.322265625	27.4213399307678	-1.70562744140625E-05	0.32244873046875
853	0.31982421875	27.4457399307062	-1.75567626953125E-05	0.32012939453125
854	0.3173828125	27.4701399306446	-1.7095947265625E-05	0.317626953125
855	0.31494140625	27.494539930583	-1.802978515625E-05	0.31512451171875
856	0.3125	27.5189399305214	-1.75933837890625E-05	0.312744140625
857	0.31005859375	27.5433399304598	-1.81121826171875E-05	0.310211181640625
858	0.3076171875	27.5677399303981	-1.8011474609375E-05	0.307861328125
859	0.30517578125	27.5921399303365	-1.8231201171875E-05	0.305419921875
860	0.302734375	27.6165399302749	-1.8621826171875E-05	0.302978515625
861	0.30029296875	27.6409399302133	-1.82525634765625E-05	0.300537109375
862	0.2978515625	27.6653399301517	-1.87225341796875E-05	0.298065185546875
863	0.29541015625	27.6897399300901	-1.81640625E-05	0.295623779296875
864	0.29296875	27.7141399300285	-1.91253662109375E-05	0.293182373046875
865	0.29052734375	27.7385399299669	-1.87713623046875E-05	0.29083251953125
866	0.2880859375	27.7629399299053	-1.91864013671875E-05	0.288360595703125
867	0.28564453125	27.7873399298437	-1.90704345703125E-05	0.285888671875
868	0.283203125	27.8117399297821	-1.9219970703125E-05	0.28350830078125
869	0.28076171875	27.8361399297205	-1.9708251953125E-05	0.281036376953125
870	0.2783203125	27.8605399296589	-1.9268798828125E-05	0.278533935546875
871	0.27587890625	27.8849399295973	-1.990966796875E-05	0.276153564453125
872	0.2734375	27.9093399295357	-1.93267822265625E-05	0.273712158203125
873	0.27099609375	27.9337399294741	-2.015380859375E-05	0.271240234375
874	0.2685546875	27.9581399294125	-1.9659423828125E-05	0.268798828125
875	0.26611328125	27.9825399293509	-2.005615234375E-05	0.266357421875
876	0.263671875	28.0069399292893	-2.00103759765625E-05	0.26397705078125
877	0.26123046875	28.0313399292277	-2.010498046875E-05	0.26153564453125
878	0.2587890625	28.0557399291661	-2.0562744140625E-05	0.259033203125
879	0.25634765625	28.0801399291045	-2.0135498046875E-05	0.25665283203125
880	0.25390625	28.1045399290429	-2.08038330078125E-05	0.254180908203125
881	0.25146484375	28.1289399289813	-2.0208740234375E-05	0.251739501953125
882	0.2490234375	28.1533399289196	-2.09869384765625E-05	0.249267578125
883	0.24658203125	28.177739928858	-2.06787109375E-05	0.246917724609375
884	0.244140625	28.2021399287964	-2.1002197265625E-05	0.244415283203125
885	0.24169921875	28.2265399287348	-2.1038818359375E-05	0.24200439453125
886	0.2392578125	28.2509399286732	-2.103271484375E-05	0.23956298828125
887	0.23681640625	28.2753399286116	-2.1630859375E-05	0.23712158203125
888	0.234375	28.29973992855	-2.11029052734375E-05	0.234619140625
889	0.23193359375	28.3241399284884	-2.17742919921875E-05	0.23223876953125
890	0.2294921875	28.3485399284268	-2.1282958984375E-05	0.22979736328125
891	0.22705078125	28.3729399283652	-2.197265625E-05	0.227325439453125
892	0.224609375	28.3973399283036	-2.17132568359375E-05	0.22491455078125
893	0.22216796875	28.421739928242	-2.1978759765625E-05	0.222503662109375
894	0.2197265625	28.4461399281804	-2.2064208984375E-05	0.2200927734375
895	0.21728515625	28.4705399281188	-2.1966552734375E-05	0.217620849609375
896	0.21484375	28.4949399280572	-2.25372314453125E-05	0.21514892578125
897	0.21240234375	28.5193399279956	-2.1966552734375E-05	0.212677001953125
898	0.2099609375	28.543739927934	-2.265625E-05	0.210205078125
899	0.20751953125	28.5681399278724	-2.20855712890625E-05	0.20782470703125
900	0.205078125	28.5925399278108	-2.26531982421875E-05	0.205352783203125
901	0.20263671875	28.6169399277492	-2.25128173828125E-05	0.2030029296875
902	0.2001953125	28.6413399276876	-2.26287841796875E-05	0.200469970703125
903	0.19775390625	28.665739927626	-2.279052734375E-05	0.1981201171875
904	0.1953125	28.6901399275644	-2.25616455078125E-05	0.195648193359375
905	0.19287109375	28.7145399275028	-2.3114013671875E-05	0.193206787109375
906	0.1904296875	28.7389399274412	-2.2540283203125E-05	0.19073486328125
907	0.18798828125	28.7633399273795	-2.325439453125E-05	0.188323974609375
908	0.185546875	28.7877399273179	-2.26654052734375E-05	0.185943603515625
909	0.18310546875	28.8121399272563	-2.32147216796875E-05	0.183441162109375
910	0.1806640625	28.8365399271947	-2.3052978515625E-05	0.180999755859375
911	0.17822265625	28.8609399271331	-2.310791015625E-05	0.178558349609375
912	0.17578125	28.8853399270715	-2.34344482421875E-05	0.176116943359375
913	0.17333984375	28.9097399270099	-2.3114013671875E-05	0.173675537109375
914	0.1708984375	28.9341399269483	-2.373046875E-05	0.17120361328125
915	0.16845703125	28.9585399268867	-2.29766845703125E-05	0.168792724609375
916	0.166015625	28.9829399268251	-2.36846923828125E-05	0.166351318359375
917	0.16357421875	29.0073399267635	-2.3077392578125E-05	0.1639404296875
918	0.1611328125	29.0317399267019	-2.36846923828125E-05	0.161468505859375
919	0.15869140625	29.0561399266403	-2.36602783203125E-05	0.1590576171875
920	0.15625	29.0805399265787	-2.36602783203125E-05	0.156585693359375
921	0.15380859375	29.1049399265171	-2.396240234375E-05	0.15423583984375
922	0.1513671875	29.1293399264555	-2.36328125E-05	0.1517333984375
923	0.14892578125	29.1537399263939	-2.4371337890625E-05	0.149261474609375
924	0.146484375	29.1781399263323	-2.37945556640625E-05	0.146881103515625
925	0.14404296875	29.2025399262707	-2.442626953125E-05	0.14447021484375
926	0.1416015625	29.2269399262091	-2.39654541015625E-05	0.1419677734375
927	0.13916015625	29.2513399261475	-2.44049072265625E-05	0.139495849609375
928	0.13671875	29.2757399260859	-2.4420166015625E-05	0.137115478515625
929	0.13427734375	29.3001399260243	-2.437744140625E-05	0.1346435546875
930	0.1318359375	29.3245399259627	-2.4774169921875E-05	0.13226318359375
931	0.12939453125	29.348939925901	-2.4334716796875E-05	0.1297607421875
932	0.126953125	29.3733399258394	-2.51190185546875E-05	0.1273193359375
933	0.12451171875	29.3977399257778	-2.44598388671875E-05	0.1248779296875
934	0.1220703125	29.4221399257162	-2.50152587890625E-05	0.122467041015625
935	0.11962890625	29.4465399256546	-2.46734619140625E-05	0.12005615234375
936	0.1171875	29.470939925593	-2.50030517578125E-05	0.11761474609375
937	0.11474609375	29.4953399255314	-2.51373291015625E-05	0.115142822265625
938	0.1123046875	29.5197399254698	-2.49603271484375E-05	0.112701416015625
939	0.10986328125	29.5441399254082	-2.53814697265625E-05	0.1102294921875
940	0.107421875	29.5685399253466	-2.489013671875E-05	0.107818603515625
941	0.10498046875	29.592939925285	-2.564697265625E-05	0.1053466796875
942	0.1025390625	29.6173399252234	-2.50244140625E-05	0.10296630859375
943	0.10009765625	29.6417399251618	-2.55859375E-05	0.10052490234375
944	0.09765625	29.6661399251002	-2.52838134765625E-05	0.098114013671875
945	0.09521484375	29.6905399250386	-2.5567626953125E-05	0.095611572265625
946	0.0927734375	29.714939924977	-2.57568359375E-05	0.093231201171875
947	0.09033203125	29.7393399249154	-2.55401611328125E-05	0.09075927734375
948	0.087890625	29.7637399248538	-2.60162353515625E-05	0.08831787109375
949	0.08544921875	29.7881399247922	-2.552490234375E-05	0.08587646484375
950	0.0830078125	29.8125399247306	-2.63397216796875E-05	0.083465576171875
951	0.08056640625	29.836939924669	-2.579345703125E-05	0.081024169921875
952	0.078125	29.8613399246074	-2.62664794921875E-05	0.07855224609375
953	0.07568359375	29.8857399245458	-2.607421875E-05	0.076141357421875
954	0.0732421875	29.9101399244842	-2.623291015625E-05	0.073760986328125
955	0.07080078125	29.9345399244226	-2.655029296875E-05	0.0712890625
956	0.068359375	29.9589399243609	-2.62725830078125E-05	0.068756103515625
957	0.06591796875	29.9833399242993	-2.6806640625E-05	0.06634521484375
958	0.0634765625	30.0077399242377	-2.62603759765625E-05	0.063934326171875
959	0.06103515625	30.0321399241761	-2.706298828125E-05	0.0615234375
960	0.05859375	30.0565399241145	-2.6568603515625E-05	0.059051513671875
961	0.05615234375	30.0809399240529	-2.69927978515625E-05	0.056610107421875
962	0.0537109375	30.1053399239913	-2.68402099609375E-05	0.05419921875
963	0.05126953125	30.1297399239297	-2.69500732421875E-05	0.051727294921875
964	0.048828125	30.1541399238681	-2.73101806640625E-05	0.04931640625
965	0.04638671875	30.1785399238065	-2.6934814453125E-05	0.0465606689453125
966	0.0439453125	30.2029399237449	-2.75146484375E-05	0.04412841796875
967	0.04150390625	30.2273399236833	-2.68890380859375E-05	0.04169921875
968	0.0390625	30.2517399236217	-2.76214599609375E-05	0.039251708984375
969	0.03662109375	30.2761399235601	-2.71575927734375E-05	0.0367919921875
970	0.0341796875	30.3005399234985	-2.74932861328125E-05	0.034344482421875
971	0.03173828125	30.3249399234369	-2.7398681640625E-05	0.0319183349609375
972	0.029296875	30.3493399233753	-2.7410888671875E-05	0.0294921875
973	0.02685546875	30.3737399233137	-2.77923583984375E-05	0.02705078125
974	0.0244140625	30.3981399232521	-2.73345947265625E-05	0.0246185302734375
975	0.02197265625	30.4225399231905	-2.79266357421875E-05	0.022149658203125
976	0.01953125	30.4469399231289	-2.728271484375E-05	0.01971435546875
977	0.01708984375	30.4713399230673	-2.7984619140625E-05	0.01727294921875
978	0.0146484375	30.4957399230057	-2.76092529296875E-05	0.0148223876953125
979	0.01220703125	30.5201399229441	-2.78839111328125E-05	0.012371826171875
980	0.009765625	30.5445399228824	-2.78900146484375E-05	0.0099456787109375
981	0.00732421875	30.5689399228208	-2.78472900390625E-05	0.00751953125
982	0.0048828125	30.5933399227592	-2.83477783203125E-05	0.0050689697265625
983	0.00244140625	30.6177399226976	-2.78594970703125E-05	0.002642822265625
984	0	30.642139922636	-2.85186767578125E-05	0.000192260742187506
985	0.00244140625	30.6665399225744	-2.7764892578125E-05	0.00263061523437499
986	0.0048828125	30.6909399225128	-2.83172607421875E-05	0.00504455566406251
