Index	Time (s)	WE(1).Potential (V)	Corrected time (s)	dWE(1).Potential/dt (V/s)	OCP value (V)
1	31.6958129199758	0.467254638671875	0	0	0.471969604492188
2	31.7958129197233	0.468719482421875	0.0999999997475243	0.0146483816206455	
3	31.8958129194708	0.46929931640625	0.199999999495049	0.00137328577693552	
4	31.9958129192183	0.468353271484375	0.299999999242573	-0.0192260015755892	
5	32.0958129189659	0.4700927734375	0.399999998990097	0.0448606684803963	
6	32.1958129187134	0.47119140625	0.499999998737621	-0.00330605846829712	
7	32.2958129184609	0.47113037109375	0.599999998485146	-0.00813798978924751	
8	32.3958129182084	0.471588134765625	0.69999999823267	0.0127664711326361	
9	32.495812917956	0.472259521484375	0.799999997980194	0.00676470389589667	
10	32.5958129177035	0.4736328125	0.899999997727718	0.0188699644058943	
11	32.695812917451	0.47314453125	0.999999997475243	-0.022735508158803	
12	32.7958129171985	0.473419189453125	1.09999999722277	0.0153095936402678	
13	32.8958129169461	0.47320556640625	1.19999999697029	-0.00874833948910236	
14	32.9958129166936	0.472564697265625	1.29999999671782	-0.00834143999963999	
15	33.0958129164411	0.47344970703125	1.39999999646534	0.0229898206889629	
16	33.1958129161886	0.47296142578125	1.49999999621286	-0.0214130859822035	
17	33.2958129159362	0.473876953125	1.59999999596039	0.0254312176257372	
18	33.3958129156837	0.473876953125	1.69999999570791	-0.0123087093234062	
19	33.4958129154312	0.473663330078125	1.79999999545544	-0.000864661415107548	
20	33.5958129151787	0.473785400390625	1.89999999520296	0.00473020644858479	
21	33.6958129149263	0.473876953125	1.99999999495049	-0.000457761925645173	
22	33.7958129146738	0.472869873046875	2.09999999469801	-0.0191242769360542	
23	33.8958129144213	0.472198486328125	2.19999999444553	-0.000254312180913985	
24	33.9958129141688	0.473297119140625	2.29999999419306	0.0246174186468124	
25	34.0958129139163	0.4735107421875	2.39999999394058	-0.0111388731747866	
26	34.1958129136639	0.4737548828125	2.49999999368811	0.00564573053270578	
27	34.2958129134114	0.474517822265625	2.59999999343563	0.0118509475141764	
28	34.3958129131589	0.473785400390625	2.69999999318316	-0.0215148106217384	
29	34.4958129129064	0.472259521484375	2.79999999293068	-0.0168863292783499	
30	34.595812912654	0.472625732421875	2.8999999926782	0.0220742970705032	
31	34.6958129124015	0.473236083984375	2.99999999242573	0.00183104770258069	
32	34.795812912149	0.47320556640625	3.09999999217325	-0.00645952951163054	
33	34.8958129118965	0.473968505859375	3.19999999192078	0.01637770421803	
34	34.9958129116441	0.474090576171875	3.2999999916683	-0.00676470389589667	
35	35.0958129113916	0.47442626953125	3.39999999141583	0.00727332849055529	
36	35.1958129111391	0.473907470703125	3.49999999116335	-0.013020783662796	
37	35.2958129108866	0.4720458984375	3.59999999091087	-0.0269570909440517	
38	35.3958129106342	0.47283935546875	3.6999999906584	0.0345355942845345	
39	35.4958129103817	0.4730224609375	3.79999999040592	-0.0121052600443363	
40	35.5958129101292	0.471893310546875	3.89999999015345	-0.0201923865824938	
41	35.6958129098767	0.473480224609375	3.99999998990097	0.0428770333528519	
42	35.7958129096243	0.473541259765625	4.0999999896485	-0.0211587734520435	
43	35.8958129093718	0.473358154296875	4.19999998939602	0.00122069846838713	
44	35.9958129091193	0.4737548828125	4.29999998914354	0.00961300078779459	
45	36.0958129088668	0.473724365234375	4.39999998889107	-0.0057983179576695	
46	36.1958129086144	0.472320556640625	4.49999998863859	-0.0240579321980476	
47	36.2958129083619	0.472747802734375	4.59999998838612	0.0241087954491377	
48	36.3958129081094	0.472900390625	4.69999998813364	-0.00686642900109291	
49	36.4958129078569	0.473785400390625	4.79999998788116	0.0158690810203552	
50	36.5958129076045	0.47332763671875	4.89999998762869	-0.0182087514549494	
51	36.695812907352	0.4739990234375	4.99999998737621	0.0205992870032787	
52	36.7958129070995	0.473358154296875	5.09999998712374	-0.0211079102009535	
53	36.895812906847	0.471160888671875	5.19999998687126	-0.0305683240294456	
54	36.9958129065946	0.472930908203125	5.29999998661879	0.0559486784040928	
55	37.0958129063421	0.472198486328125	5.39999998636631	-0.0414020232856274	
56	37.1958129060896	0.472808837890625	5.49999998611383	0.0256346687674522	
57	37.2958129058371	0.472747802734375	5.59999998586136	-0.0106811113655567	
58	37.3958129055846	0.474517822265625	5.69999998560888	0.0351968072354794	
59	37.4958129053322	0.474456787109375	5.79999998535641	-0.0219725724309683	
60	37.5958129050797	0.473846435546875	5.89999998510393	-0.00457761948928237	
61	37.6958129048272	0.4735107421875	5.99999998485146	0.000762936542741954	
62	37.7958129045747	0.472412109375	6.09999998459898	-0.0182596147060394	
63	37.8958129043223	0.47174072265625	6.1999999843465	-0.000610349234193563	
64	37.9958129040698	0.47308349609375	6.29999998409403	0.0287881381809711	
65	38.0958129038173	0.473480224609375	6.39999998384155	-0.0106302490457892	
66	38.1958129035648	0.473846435546875	6.49999998358908	0.00656125415116549	
67	38.2958129033124	0.474609375	6.5999999833366	0.0110371485352516	
68	38.3958129030599	0.474365234375	6.69999998308413	-0.0121561223641038	
69	38.4958129028074	0.474029541015625	6.79999998283165	-0.000762936542741954	
70	38.5958129025549	0.47271728515625	6.89999998257917	-0.0209553241729736	
71	38.6958129023025	0.472808837890625	6.9999999823267	0.0158690810203552	
72	38.79581290205	0.472381591796875	7.09999998207422	-0.013275096192956	
73	38.8958129017975	0.473907470703125	7.19999998182175	0.0332640334963799	
74	38.995812901545	0.47381591796875	7.29999998156927	-0.0209044609218836	
75	39.0958129012926	0.47320556640625	7.3999999813168	-0.00503538129851222	
76	39.1958129010401	0.47344970703125	7.49999998106432	0.0112914610654116	
77	39.2958129007876	0.47259521484375	7.59999998081184	-0.0205484237521887	
78	39.3958129005351	0.471588134765625	7.69999998055937	-0.00768022798001766	
79	39.4958129002827	0.4718017578125	7.79999998030689	0.0128173343837261	
80	39.5958129000302	0.470947265625	7.89999998005442	-0.0215148106217384	
81	39.6958128997777	0.471527099609375	7.99999997980194	0.0213113613426685	
82	39.7958128995252	0.473236083984375	8.09999997954947	0.0217182599008083	
83	39.8958128992728	0.47265625	8.19999997929699	-0.0286355521529913	
84	39.9958128990203	0.47344970703125	8.29999997904451	0.0270079541951418	
85	40.0958128987678	0.473297119140625	8.39999997879204	-0.0139871696010232	
86	40.1958128985153	0.473846435546875	8.49999997853956	0.0144957946613431	
87	40.2958128982629	0.473236083984375	8.59999997828709	-0.0181070268154144	
88	40.3958128980104	0.473419189453125	8.69999997803461	0.0123087093234062	
89	40.4958128977579	0.472320556640625	8.79999997778214	-0.0243122447282076	
90	40.5958128975054	0.4730224609375	8.89999997752966	0.026295879855752	
91	40.6958128972529	0.4732666015625	8.99999997727718	-0.00737505313009024	
92	40.7958128970005	0.473297119140625	9.09999997702471	5.0862436182797E-05	
93	40.895812896748	0.471527099609375	9.19999997677223	-0.0319924727082253	
94	40.9958128964955	0.4725341796875	9.29999997651976	0.0392149388790131	
95	41.095812896243	0.47216796875	9.39999997626728	-0.0243631061166525	
96	41.1958128959906	0.472991943359375	9.49999997601481	0.022735508158803	
97	41.2958128957381	0.471832275390625	9.59999997576233	-0.0320941954851151	
98	41.3958128954856	0.472198486328125	9.69999997550985	0.0229898206889629	
99	41.4958128952331	0.474029541015625	9.79999997525738	0.0254312176257372	
100	41.5958128949807	0.473724365234375	9.8999999750049	-0.0257363934069872	
101	41.6958128947282	0.474456787109375	9.99999997475243	0.0230915453284979	
102	41.7958128944757	0.474700927734375	10.0999999745	-0.0050862436182797	
103	41.8958128942232	0.473663330078125	10.1999999742475	-0.0194294508546591	
104	41.9958128939708	0.473968505859375	10.299999973995	0.0185139272361994	
105	42.0958128937183	0.47265625	10.3999999737425	-0.0310769490897655	
106	42.1958128934658	0.47369384765625	10.49999997349	0.0353493914008141	
107	42.2958128932133	0.473907470703125	10.5999999732376	-0.0125630218535662	
108	42.3958128929609	0.473297119140625	10.6999999729851	-0.0102233495563269	
109	42.4958128927084	0.473846435546875	10.7999999727326	0.0179035775363445	
110	42.5958128924559	0.47406005859375	10.8999999724801	-0.00452675670385361	
111	42.6958128922034	0.4730224609375	10.9999999722277	-0.019683763384819	
112	42.795812891951	0.472564697265625	11.0999999719752	0.00442503206431866	
113	42.8958128916985	0.47235107421875	11.1999999717227	-0.00203449744731188	
114	42.995812891446	0.472564697265625	11.2999999714702	0.00488279387354851	
115	43.0958128911935	0.47344970703125	11.3999999712178	0.013020783662796	
116	43.1958128909411	0.473907470703125	11.4999999709653	-0.00122069846838713	
117	43.2958128906886	0.473785400390625	11.5999999707128	-0.00462848180904984	
118	43.3958128904361	0.473968505859375	11.6999999704603	0.00630694208666682	
119	43.4958128901836	0.474334716796875	11.7999999702079	0.00417071999981999	
120	43.5958128899312	0.4732666015625	11.8999999699554	-0.0232441332191229	
121	43.6958128896787	0.472076416015625	11.9999999697029	-0.00813798978924751	
122	43.7958128894262	0.472930908203125	12.0999999694504	0.025990704074502	
123	43.8958128891737	0.471923828125	12.199999969198	-0.0323993712663651	
124	43.9958128889213	0.4725341796875	12.2999999689455	0.0257872547954321	
125	44.0958128886688	0.4720458984375	12.399999968693	-0.0194294508546591	
126	44.1958128884163	0.471954345703125	12.4999999684405	0.00605263002216816	
127	44.2958128881638	0.47210693359375	12.5999999681881	0.00223794719204307	
128	44.3958128879113	0.47119140625	12.6999999679356	-0.0188699644058943	
129	44.4958128876589	0.47125244140625	12.7999999676831	0.0123087093234062	
130	44.5958128874064	0.472442626953125	12.8999999674306	0.0180561654269695	
131	44.6958128871539	0.4732666015625	12.9999999671782	0.00142414821311831	
132	44.7958128869014	0.47259521484375	13.0999999669257	-0.0179544407874346	
133	44.895812886649	0.472320556640625	13.1999999666732	0.00554400542750955	
134	44.9958128863965	0.4727783203125	13.2999999664207	0.00935868825763464	
135	45.095812886144	0.472442626953125	13.3999999661683	-0.0124104348942637	
136	45.1958128858915	0.47222900390625	13.4999999659158	0.00152587308548391	
137	45.2958128856391	0.472747802734375	13.5999999656633	0.0108845615759492	
138	45.3958128853866	0.473724365234375	13.6999999654108	0.0111388731747866	
139	45.4958128851341	0.47528076171875	13.7999999651583	0.0188699644058943	
140	45.5958128848816	0.474609375	13.8999999649059	-0.0272114034742117	
141	45.6958128846292	0.473297119140625	13.9999999646534	-0.0110371485352516	
142	45.7958128843767	0.474090576171875	14.0999999644009	0.0276183020323515	
143	45.8958128841242	0.473907470703125	14.1999999641484	-0.0169880539178848	
144	45.9958128838717	0.4742431640625	14.299999963896	0.0109354238957167	
145	46.0958128836193	0.473876953125	14.3999999636435	-0.0112405987456441	
146	46.1958128833668	0.473785400390625	14.499999963391	0.0037129579577595	
147	46.2958128831143	0.475830078125	14.5999999631385	0.0373330265283585	
148	46.3958128828618	0.47637939453125	14.6999999628861	-0.0140888951718807	
149	46.4958128826094	0.475433349609375	14.7999999626336	-0.0169371906667948	
150	46.5958128823569	0.474456787109375	14.8999999623811	-0.00503538129851222	
151	46.6958128821044	0.473907470703125	14.9999999621286	-0.00183104770258069	
152	46.7958128818519	0.473724365234375	15.0999999618762	-0.000203449744731188	
153	46.8958128815995	0.474273681640625	15.1999999616237	0.0103759374469519	
154	46.995812881347	0.4755859375	15.2999999613712	0.0170389153063297	
155	47.0958128810945	0.47479248046875	15.3999999611187	-0.0280252024531364	
156	47.195812880842	0.475982666015625	15.4999999608663	0.0354511179029942	
157	47.2958128805896	0.475616455078125	15.5999999606138	-0.0232441332191229	
158	47.3958128803371	0.475738525390625	15.6999999603613	0.0104776620864868	
159	47.4958128800846	0.475128173828125	15.7999999601088	-0.0138345826417208	
160	47.5958128798321	0.474822998046875	15.8999999598564	0.00193277257494628	
161	47.6958128795796	0.474884033203125	15.9999999596039	0.00264484668150544	
162	47.7958128793272	0.474456787109375	16.0999999593514	-0.00956213846802711	
163	47.8958128790747	0.474365234375	16.1999999590989	0.00350950821302831	
164	47.9958128788222	0.47430419921875	16.2999999588465	-0.00147501064930111	
165	48.0958128785697	0.474273681640625	16.399999958594	-0.000152587308548391	
166	48.1958128783173	0.47314453125	16.4999999583415	-0.0205484237521887	
167	48.2958128780648	0.473297119140625	16.599999958089	0.0158690810203552	
168	48.3958128778123	0.47296142578125	16.6999999578366	-0.0116983605548739	
169	48.4958128775598	0.47412109375	16.7999999575841	0.0256855301558971	
170	48.5958128773074	0.472503662109375	16.8999999573316	-0.0443011820316315	
171	48.6958128770549	0.474090576171875	16.9999999570791	0.0518288239836693	
172	48.7958128768024	0.474761962890625	17.0999999568267	-0.011596635915339	
173	48.8958128765499	0.47369384765625	17.1999999565742	-0.0221251603215933	
174	48.9958128762975	0.472686767578125	17.2999999563217	-0.00376382027752697	
175	49.095812876045	0.473480224609375	17.3999999560692	0.022735508158803	
176	49.1958128757925	0.47320556640625	17.4999999558167	-0.0176492650061846	
177	49.29581287554	0.47283935546875	17.5999999555643	-0.000864661415107548	
178	49.3958128752876	0.47265625	17.6999999553118	0	
179	49.4958128750351	0.472564697265625	17.7999999550593	-0.000762936542741954	
180	49.5958128747826	0.47271728515625	17.8999999548068	0.00325519591569901	
181	49.6958128745301	0.473907470703125	17.9999999545544	0.0197346247732639	
182	49.7958128742777	0.4716796875	18.0999999543019	-0.0542193576693535	
183	49.8958128740252	0.470947265625	18.1999999540494	0.016530292108655	
184	49.9958128737727	0.4697265625	18.2999999537969	-0.0212604980915785	
185	50.0958128735202	0.469757080078125	18.3999999535445	0.0123595716431737	
186	50.1958128732678	0.470611572265625	18.499999953292	0.0112405987456441	
187	50.2958128730153	0.47064208984375	18.5999999530395	-0.00930782593786716	
188	50.3958128727628	0.4705810546875	18.699999952787	0.00137328577693552	
189	50.4958128725103	0.4718017578125	18.7999999525346	0.023193271830678	
190	50.5958128722579	0.4720458984375	18.8999999522821	-0.00996903795748949	
191	50.6958128720054	0.47113037109375	18.9999999520296	-0.0155639052391052	
192	50.7958128717529	0.471527099609375	19.0999999517771	0.0187682397663593	
193	50.8958128715004	0.471771240234375	19.1999999515247	-0.00320433359593153	
194	50.9958128712479	0.472076416015625	19.2999999512722	0.00406899489462376	
195	51.0958128709955	0.47198486328125	19.3999999510197	-0.00442503206431866	
196	51.195812870743	0.47265625	19.4999999507672	0.0143940690904856	
197	51.2958128704905	0.4735107421875	19.5999999505148	0.00752764055505395	
198	51.395812870238	0.473602294921875	19.6999999502623	-0.00605263002216816	
199	51.4958128699856	0.47418212890625	19.7999999500098	0.0124104348942637	
200	51.5958128697331	0.47454833984375	19.8999999497573	0.000254312180913985	
201	51.6958128694806	0.47381591796875	19.9999999495049	-0.0157673545181751	
202	51.7958128692281	0.471832275390625	20.0999999492524	-0.0266010537743568	
203	51.8958128689757	0.47357177734375	20.1999999489999	0.052591759711504	
204	51.9958128687232	0.474609375	20.2999999487474	-0.00788367725908756	
205	52.0958128684707	0.473724365234375	20.399999948495	-0.0225320588797331	
206	52.1958128682182	0.474334716796875	20.4999999482425	0.0249734558165073	
207	52.2958128679658	0.47479248046875	20.59999994799	-0.0016784603940323	
208	52.3958128677133	0.47607421875	20.6999999477375	0.0201923865824938	
209	52.4958128674608	0.475341796875	20.799999947485	-0.0268553663045168	
210	52.5958128672083	0.47607421875	20.8999999472326	0.0262450166046619	
211	52.6958128669559	0.47589111328125	20.9999999469801	-0.0143432067707181	
212	52.7958128667034	0.47589111328125	21.0999999467276	0.00457761948928237	
213	52.8958128664509	0.475799560546875	21.1999999464751	-0.00228880974464118	
214	52.9958128661984	0.475006103515625	21.2999999462227	-0.0134785454720259	
215	53.095812865946	0.475494384765625	21.3999999459702	0.0179035775363445	
216	53.1958128656935	0.47509765625	21.4999999457177	-0.0156147675588727	
217	53.295812865441	0.475189208984375	21.5999999454652	0.00793454051017761	
218	53.3958128651885	0.475433349609375	21.6999999452128	0.00208535999991	
219	53.4958128649361	0.475555419921875	21.7999999449603	-0.000305174617096782	
220	53.5958128646836	0.4754638671875	21.8999999447078	-0.00228880974464118	
221	53.6958128644311	0.474761962890625	21.9999999444553	-0.0113931857049465	
222	53.7958128641786	0.474639892578125	22.0999999442029	0.00564573053270578	
223	53.8958128639262	0.475250244140625	22.1999999439504	0.0102742118760943	
224	53.9958128636737	0.47540283203125	22.2999999436979	-0.00473020644858479	
225	54.0958128634212	0.47601318359375	22.3999999434454	0.011444048024714	
226	54.1958128631687	0.476043701171875	22.499999943193	-0.00605263002216816	
227	54.2958128629163	0.4744873046875	22.5999999429405	-0.0268553663045168	
228	54.3958128626638	0.47479248046875	22.699999942688	0.0238544829189777	
229	54.4958128624113	0.474456787109375	22.7999999424355	-0.0149026941508055	
230	54.5958128621588	0.4739990234375	22.8999999421831	-0.00345864566043019	
231	54.6958128619063	0.47344970703125	22.9999999419306	-0.00584918027743697	
232	54.7958128616539	0.473480224609375	23.0999999416781	0.0054422807879746	
233	54.8958128614014	0.473876953125	23.1999999414256	0.0050862436182797	
234	54.9958128611489	0.47418212890625	23.2999999411732	0.00106811115983874	
235	55.0958128608964	0.47454833984375	23.3999999409207	0.00447589438408613	
236	55.195812860644	0.47430419921875	23.4999999406682	-0.00773109029978514	
237	55.2958128603915	0.47357177734375	23.5999999404157	-0.00935868825763464	
238	55.395812860139	0.473602294921875	23.6999999401633	0.00829057674854994	
239	55.4958128598865	0.47332763671875	23.7999999399108	-0.00783281493932009	
240	55.5958128596341	0.47296142578125	23.8999999396583	-0.00340778334066272	
241	55.6958128593816	0.472991943359375	23.9999999394058	0.00391640746966004	
242	55.7958128591291	0.473175048828125	24.0999999391533	0.00178018526639789	
243	55.8958128588766	0.4736328125	24.1999999389009	0.0063578044064343	
244	55.9958128586242	0.473297119140625	24.2999999386484	-0.0108845615759492	
245	56.0958128583717	0.473052978515625	24.3999999383959	0.000966386287473142	
246	56.1958128581192	0.472869873046875	24.4999999381434	-0.0016275979578495	
247	56.2958128578667	0.472930908203125	24.599999937891	0.00244139693677425	
248	56.3958128576143	0.473175048828125	24.6999999376385	0.00315347104333341	
249	56.4958128573618	0.472015380859375	24.799999937386	-0.0239053443074226	
250	56.5958128571093	0.4725341796875	24.8999999371335	0.0238544829189777	
251	56.6958128568568	0.47235107421875	24.9999999368811	-0.013275096192956	
252	56.7958128566044	0.472076416015625	25.0999999366286	-0.00116983603220433	
253	56.8958128563519	0.471527099609375	25.1999999363761	-0.00747677823528647	
254	56.9958128560994	0.47076416015625	25.2999999361236	-0.00849402695894241	
255	57.0958128558469	0.471954345703125	25.3999999358712	0.0288898646831512	
256	57.1958128555945	0.471466064453125	25.4999999356187	-0.0253803562372923	
257	57.295812855342	0.471527099609375	25.5999999353662	0.0107828369364142	
258	57.3958128550895	0.47119140625	25.6999999351137	-0.00849402695894241	
259	57.495812854837	0.472137451171875	25.7999999348613	0.0214639473706484	
260	57.5958128545846	0.472015380859375	25.8999999346088	-0.0143940690904856	
261	57.6958128543321	0.470947265625	25.9999999343563	-0.0150044187903404	
262	57.7958128540796	0.47161865234375	26.0999999341038	0.0243631061166525	
263	57.8958128538271	0.46954345703125	26.1999999338514	-0.0494382865726948	
264	57.9958128535746	0.470916748046875	26.2999999335989	0.0516253709793091	
265	58.0958128533222	0.470184326171875	26.3999999333464	-0.0363666415214539	
266	58.1958128530697	0.470550537109375	26.4999999330939	0.0198363494127989	
267	58.2958128528172	0.471099853515625	26.5999999328415	0.0033569207880646	
268	58.3958128525647	0.47113037109375	26.699999932589	-0.00462848180904984	
269	58.4958128523123	0.472137451171875	26.7999999323365	0.019938075914979	
270	58.5958128520598	0.472900390625	26.899999932084	0.00233967206440866	
271	58.6958128518073	0.472503662109375	26.9999999318316	-0.0128173343837261	
272	58.7958128515548	0.471435546875	27.0999999315791	-0.0124104348942637	
273	58.8958128513024	0.471771240234375	27.1999999313266	0.0172932278364897	
274	58.9958128510499	0.472198486328125	27.2999999310741	0.000356037053279579	
275	59.0958128507974	0.472625732421875	27.3999999308217	0.00396727025508881	
276	59.1958128505449	0.472198486328125	27.4999999305692	-0.0113931857049465	
277	59.2958128502925	0.473114013671875	27.5999999303167	0.023193271830678	
278	59.39581285004	0.472137451171875	27.6999999300642	-0.0300088375806808	
279	59.4958128497875	0.471466064453125	27.7999999298117	0.00213622231967747	
280	59.595812849535	0.47149658203125	27.8999999295593	0.00513710593804717	
281	59.6958128492826	0.47161865234375	27.9999999293068	-0.000356037053279579	
282	59.7958128490301	0.472564697265625	28.0999999290543	0.0160216670483351	
283	59.8958128487776	0.47222900390625	28.1999999288018	-0.0167846046388149	
284	59.9958128485251	0.471771240234375	28.2999999285494	-0.00132242334075272	
285	60.0958128482727	0.471923828125	28.3999999282969	0.00701901642605662	
286	60.1958128480202	0.47161865234375	28.4999999280444	-0.00890092644840479	
287	60.2958128477677	0.472900390625	28.5999999277919	0.0275674406439066	
288	60.3958128475152	0.472381591796875	28.6999999275395	-0.0254820808768272	
289	60.4958128472628	0.472930908203125	28.799999927287	0.0203958377242088	
290	60.5958128470103	0.472869873046875	28.8999999270345	-0.00925696361809969	
291	60.6958128467578	0.473297119140625	28.999999926782	0.0103759374469519	
292	60.7958128465053	0.472930908203125	29.0999999265296	-0.0119018098339438	
293	60.8958128462529	0.473297119140625	29.1999999262771	0.0124104348942637	
294	60.9958128460004	0.472747802734375	29.2999999260246	-0.0155639052391052	
295	61.0958128457479	0.473846435546875	29.3999999257721	0.0277708899229765	
296	61.1958128454954	0.47308349609375	29.4999999255197	-0.0286355521529913	
297	61.2958128452429	0.472869873046875	29.5999999252672	0.00864661391824484	
298	61.3958128449905	0.473175048828125	29.6999999250147	0.00554400542750955	
299	61.495812844738	0.473480224609375	29.7999999247622	0.00132242334075272	
300	61.5958128444855	0.474029541015625	29.8999999245098	0.00752764055505395	
301	61.695812844233	0.474029541015625	29.9999999242573	-0.00539141846820712	
302	61.7958128439806	0.473114013671875	30.0999999240048	-0.0149535564705729	
303	61.8958128437281	0.473388671875	30.1999999237523	0.0157164931297302	
304	61.9958128434756	0.473052978515625	30.2999999234999	-0.0124104348942637	
305	62.0958128432231	0.47271728515625	30.3999999232474	-0.00132242334075272	
306	62.1958128429707	0.473236083984375	30.4999999229949	0.0123087093234062	
307	62.2958128427182	0.4727783203125	30.5999999227424	-0.0155639052391052	
308	62.3958128424657	0.471160888671875	30.69999992249	-0.0225829221308231	
309	62.4958128422132	0.47149658203125	30.7999999222375	0.0234984457492828	
310	62.5958128419608	0.47198486328125	30.899999921985	-0.000356037053279579	
311	62.6958128417083	0.471771240234375	30.9999999217325	-0.00849402695894241	
312	62.7958128414558	0.471343994140625	31.09999992148	-0.0037129579577595	
313	62.8958128412033	0.470458984375	31.1999999212276	-0.0119526721537113	
314	62.9958128409509	0.471771240234375	31.2999999209751	0.0329588577151299	
315	63.0958128406984	0.472442626953125	31.3999999207226	-0.00595090491697192	
316	63.1958128404459	0.473052978515625	31.4999999204701	0.00773109029978514	
317	63.2958128401934	0.47406005859375	31.5999999202177	0.0135802701115608	
318	63.395812839941	0.474212646484375	31.6999999199652	-0.00691729132086039	
319	63.4958128396885	0.473907470703125	31.7999999197127	-0.00401813257485628	
320	63.595812839436	0.472900390625	31.8999999194602	-0.0143940690904856	
321	63.6958128391835	0.47235107421875	31.9999999192078	0.00066121167037636	
322	63.7958128389311	0.472015380859375	32.0999999189553	-0.00310260872356594	
323	63.8958128386786	0.472015380859375	32.1999999187028	0.00208535999991	
324	63.9958128384261	0.472991943359375	32.2999999184503	0.0167846046388149	
325	64.0958128381736	0.473907470703125	32.3999999181979	0.00539141846820712	
326	64.1958128379212	0.474517822265625	32.4999999179454	0.00376382027752697	
327	64.2958128376687	0.47369384765625	32.5999999176929	-0.0191751383244991	
328	64.3958128374162	0.474395751953125	32.6999999174404	0.0245156940072775	
329	64.4958128371637	0.473724365234375	32.799999917188	-0.0232441332191229	
330	64.5958128369113	0.473052978515625	32.8999999169355	-0.00213622231967747	
331	64.6958128366588	0.473175048828125	32.999999916683	0.00783281493932009	
332	64.7958128364063	0.47344970703125	33.0999999164305	0.00137328577693552	
333	64.8958128361538	0.473968505859375	33.1999999161781	0.0067138415761292	
334	64.9958128359013	0.47357177734375	33.2999999159256	-0.0124104348942637	
335	65.0958128356489	0.47412109375	33.3999999156731	0.01642856746912	
336	65.1958128353964	0.47357177734375	33.4999999154206	-0.0178018528968096	
337	65.2958128351439	0.47430419921875	33.5999999151682	0.0216673985123634	
338	65.3958128348914	0.472991943359375	33.6999999149157	-0.0344338677823544	
339	65.495812834639	0.47259521484375	33.7999999146632	0.0104776620864868	
340	65.5958128343865	0.473480224609375	33.8999999144107	0.0164794288575649	
341	65.695812834134	0.47412109375	33.9999999141583	0.000101724872365594	
342	65.7958128338815	0.4749755859375	34.0999999139058	0.0111388731747866	
343	65.8958128336291	0.473968505859375	34.1999999136533	-0.026295879855752	
344	65.9958128333766	0.47479248046875	34.2999999134008	0.029703663662076	
345	66.0958128331241	0.473602294921875	34.3999999131483	-0.0347899049520493	
346	66.1958128328716	0.4742431640625	34.4999999128959	0.0283812396228313	
347	66.2958128326192	0.473297119140625	34.5999999126434	-0.0287881381809711	
348	66.3958128323667	0.47296142578125	34.6999999123909	0.00701901642605662	
349	66.4958128321142	0.4737548828125	34.7999999121384	0.0153095936402678	
350	66.5958128318617	0.475128173828125	34.899999911886	0.0148009685799479	
351	66.6958128316093	0.473785400390625	34.9999999116335	-0.0379942394793034	
352	66.7958128313568	0.473724365234375	35.099999911381	0.0191242769360542	
353	66.8958128311043	0.47357177734375	35.1999999111285	-0.00656125415116549	
354	66.9958128308518	0.473480224609375	35.2999999108761	-0.000101724872365594	
355	67.0958128305994	0.473114013671875	35.3999999106236	-0.00615435466170311	
356	67.1958128303469	0.472869873046875	35.4999999103711	-0.00050862436182797	
357	67.2958128300944	0.473907470703125	35.5999999101186	0.0206501483917236	
358	67.3958128298419	0.473358154296875	35.6999999098662	-0.0229898206889629	
359	67.4958128295895	0.474853515625	35.7999999096137	0.0372821651399136	
360	67.595812829337	0.47467041015625	35.8999999093612	-0.022633783519268	
361	67.6958128290845	0.473602294921875	35.9999999091087	-0.0124612972140312	
362	67.795812828832	0.4737548828125	36.0999999088563	0.0146483816206455	
363	67.8958128285796	0.47332763671875	36.1999999086038	-0.0131733706220984	
364	67.9958128283271	0.47454833984375	36.2999999083513	0.0278726145625114	
365	68.0958128280746	0.473541259765625	36.3999999080988	-0.0341286957263947	
366	68.1958128278221	0.47308349609375	36.4999999078464	0.007425915915519	
367	68.2958128275696	0.473876953125	36.5999999075939	0.016530292108655	
368	68.3958128273172	0.47320556640625	36.6999999073414	-0.0230915453284979	
369	68.4958128270647	0.47406005859375	36.7999999070889	0.026143291965127	
370	68.5958128268122	0.47344970703125	36.8999999068365	-0.0233967211097479	
371	68.6958128265597	0.47271728515625	36.999999906584	-0.00345864566043019	
372	68.7958128263073	0.47381591796875	37.0999999063315	0.0266519170254469	
373	68.8958128260548	0.474273681640625	37.199999906079	-0.00686642900109291	
374	68.9958128258023	0.474884033203125	37.2999999058266	0.00951127521693707	
375	69.0958128255498	0.474639892578125	37.3999999055741	-0.0100707625970244	
376	69.1958128252974	0.472900390625	37.4999999053216	-0.0270079541951418	
377	69.2958128250449	0.47210693359375	37.5999999050691	0.00493365619331598	
378	69.3958128247924	0.472747802734375	37.6999999048167	0.0152078680694103	
379	69.4958128245399	0.4720458984375	37.7999999045642	-0.0229898206889629	
380	69.5958128242875	0.47381591796875	37.8999999043117	0.0427753105759621	
381	69.695812824035	0.473907470703125	37.9999999040592	-0.0213113613426685	
382	69.7958128237825	0.473480224609375	38.0999999038067	-0.00300088385120034	
383	69.89581282353	0.472900390625	38.1999999035543	-0.00534055568277836	
384	69.9958128232776	0.473876953125	38.2999999033018	0.0232441332191229	
385	70.0958128230251	0.47418212890625	38.3999999030493	-0.00773109029978514	
386	70.1958128227726	0.473297119140625	38.4999999027968	-0.016530292108655	
387	70.2958128225201	0.473541259765625	38.5999999025444	0.0158182177692652	
388	70.3958128222677	0.47393798828125	38.6999999022919	0.00147501064930111	
389	70.4958128220152	0.473480224609375	38.7999999020394	-0.0122069846838713	
390	70.5958128217627	0.47344970703125	38.8999999017869	0.00610349234193563	
391	70.6958128215102	0.473846435546875	38.9999999015345	0.00610349234193563	
392	70.7958128212578	0.473968505859375	39.099999901282	-0.00249225948937237	
393	70.8958128210053	0.4735107421875	39.1999999010295	-0.00849402695894241	
394	70.9958128207528	0.473297119140625	39.299999900777	0.00183104770258069	
395	71.0958128205003	0.47320556640625	39.3999999005246	-0.000712074106559157	
396	71.1958128202479	0.473358154296875	39.4999999002721	0.00315347104333341	
397	71.2958128199954	0.47265625	39.5999999000196	-0.0149535564705729	
398	71.3958128197429	0.4742431640625	39.6999998997671	0.0377907902002335	
399	71.4958128194904	0.474151611328125	39.7999998995147	-0.0225320588797331	
400	71.5958128192379	0.4742431640625	39.8999998992622	0.00803626514971256	
401	71.6958128189855	0.475860595703125	39.9999998990097	0.0282795149832964	
402	71.795812818733	0.47515869140625	40.0999998987572	-0.0314329862594604	
403	71.8958128184805	0.474853515625	40.1999998985048	0.00798540282994509	
404	71.995812818228	0.475830078125	40.2999998982523	0.0191242769360542	
405	72.0958128179756	0.474853515625	40.3999998979998	-0.0303140114992857	
406	72.1958128177231	0.475311279296875	40.4999998977473	0.023040683940053	
407	72.2958128174706	0.47528076171875	40.5999998974949	-0.00915523897856474	
408	72.3958128172181	0.47528076171875	40.6999998972424	0.00188191013876349	
409	72.4958128169657	0.47503662109375	40.7999998969899	-0.00457761948928237	
410	72.5958128167132	0.474609375	40.8999998967374	-0.00498451897874475	
411	72.6958128164607	0.474761962890625	40.999999896485	0.00696815364062786	
412	72.7958128162082	0.475494384765625	41.0999998962325	0.0102233495563269	
413	72.8958128159558	0.47528076171875	41.19999989598	-0.0119526721537113	
414	72.9958128157033	0.474578857421875	41.2999998957275	-0.00793454051017761	
415	73.0958128154508	0.475250244140625	41.399999895475	0.019785488024354	
416	73.1958128151983	0.47503662109375	41.4999998952226	-0.0140888951718807	
417	73.2958128149459	0.47552490234375	41.5999998949701	0.0136819956824183	
418	73.3958128146934	0.475128173828125	41.6999998947176	-0.0136819956824183	
419	73.4958128144409	0.4742431640625	41.7999998944651	-0.00996903795748949	
420	73.5958128141884	0.47412109375	41.8999998942127	0.00676470389589667	
421	73.695812813936	0.47442626953125	41.9999998939602	0.00406899489462376	
422	73.7958128136835	0.475067138671875	42.0999998937077	0.00778195261955261	
423	73.895812813431	0.47515869140625	42.1999998934552	-0.00478106923401356	
424	73.9958128131785	0.4752197265625	42.2999998932028	0.00218708487227559	
425	74.0958128129261	0.47515869140625	42.3999998929503	-0.00152587308548391	
426	74.1958128126736	0.476104736328125	42.4999998926978	0.0182596147060394	
427	74.2958128124211	0.47601318359375	42.5999998924453	-0.0129190590232611	
428	74.3958128121686	0.47509765625	42.6999998921929	-0.0125630218535662	
429	74.4958128119162	0.474853515625	42.7999998919404	0.00590004259720445	
430	74.5958128116637	0.47491455078125	42.8999998916879	0.000915523851290345	
431	74.6958128114112	0.47509765625	42.9999998914354	0.00183104770258069	
432	74.7958128111587	0.4757080078125	43.099999891183	0.00925696361809969	
433	74.8958128109062	0.475555419921875	43.1999998909305	-0.00930782593786716	
434	74.9958128106538	0.475189208984375	43.299999890678	-0.00289915897883475	
435	75.0958128104013	0.473388671875	43.3999998904255	-0.029245899990201	
436	75.1958128101488	0.4732666015625	43.4999998901731	0.0175475403666496	
437	75.2958128098963	0.47357177734375	43.5999998899206	0.00101724872365594	
438	75.3958128096439	0.4718017578125	43.6999998896681	-0.0364175029098988	
439	75.4958128093914	0.472442626953125	43.7999998894156	0.0334166213870049	
440	75.5958128091389	0.472747802734375	43.8999998891632	-0.00778195261955261	
441	75.6958128088864	0.473846435546875	43.9999998889107	0.0187173765152693	
442	75.795812808634	0.474334716796875	44.0999998886582	-0.00284829642623663	
443	75.8958128083815	0.474029541015625	44.1999998884057	-0.00762936566025019	
444	75.995812808129	0.47369384765625	44.2999998881533	-0.000966386287473142	
445	76.0958128078765	0.47259521484375	44.3999998879008	-0.0172423664480448	
446	76.1958128076241	0.4725341796875	44.4999998876483	0.0105793867260218	
447	76.2958128073716	0.47265625	44.5999998873958	-0.000712074106559157	
448	76.3958128071191	0.474151611328125	44.6999998871433	0.0257872547954321	
449	76.4958128068666	0.473846435546875	44.7999998868909	-0.022633783519268	
450	76.5958128066142	0.4739990234375	44.8999998866384	0.011342323385179	
451	76.6958128063617	0.473480224609375	44.9999998863859	-0.0123087093234062	
452	76.7958128061092	0.472686767578125	45.0999998861334	-0.00798540282994509	
453	76.8958128058567	0.471771240234375	45.199999885881	-0.00925696361809969	
454	76.9958128056043	0.472015380859375	45.2999998856285	0.0125121595337987	
455	77.0958128053518	0.473876953125	45.399999885376	0.0282286517322063	
456	77.1958128050993	0.472381591796875	45.4999998851235	-0.0483193136751652	
457	77.2958128048468	0.472503662109375	45.5999998848711	0.025888979434967	
458	77.3958128045944	0.4736328125	45.6999998846186	0.0142923444509506	
459	77.4958128043419	0.472900390625	45.7999998843661	-0.026194155216217	
460	77.5958128040894	0.47296142578125	45.8999998841136	0.0134276831522584	
461	77.6958128038369	0.471923828125	45.9999998838612	-0.0221760217100382	
462	77.7958128035845	0.4722900390625	46.0999998836087	0.0190225504338741	
463	77.895812803332	0.472320556640625	46.1999998833562	-0.00717160338535905	
464	77.9958128030795	0.472686767578125	46.2999998831037	0.00757850287482142	
465	78.095812802827	0.47210693359375	46.3999998828513	-0.0148009685799479	
466	78.1958128025746	0.471405029296875	46.4999998825988	-0.00488279387354851	
467	78.2958128023221	0.47149658203125	46.5999998823463	0.00793454051017761	
468	78.3958128020696	0.4727783203125	46.6999998820938	0.0200906619429588	
469	78.4958128018171	0.47259521484375	46.7999998818414	-0.0180053021758795	
470	78.5958128015646	0.4715576171875	46.8999998815889	-0.0126138841733336	
471	78.6958128013122	0.47320556640625	46.9999998813364	0.0417071990668774	
472	78.7958128010597	0.473724365234375	47.0999998810839	-0.0131733706220984	
473	78.8958128008072	0.474090576171875	47.1999998808315	0.00615435466170311	
474	78.9958128005547	0.473907470703125	47.299999880579	-0.00590004259720445	
475	79.0958128003023	0.473419189453125	47.3999998803265	-0.00559486821293831	
476	79.1958128000498	0.472564697265625	47.499999880074	-0.0105793867260218	
477	79.2958127997973	0.472259521484375	47.5999998798216	0.00274657155387104	
478	79.3958127995448	0.472076416015625	47.6999998795691	-0.00264484668150544	
479	79.4958127992924	0.473175048828125	47.7999998793166	0.0212604980915785	
480	79.5958127990399	0.473480224609375	47.8999998790641	-0.00783281493932009	
481	79.6958127987874	0.47369384765625	47.9999998788116	0.00401813257485628	
482	79.7958127985349	0.473114013671875	48.0999998785592	-0.0121052600443363	
483	79.8958127982825	0.471466064453125	48.1999998783067	-0.022735508158803	
484	79.99581279803	0.4736328125	48.2999998780542	0.0570167899131775	
485	80.0958127977775	0.473846435546875	48.3999998778017	-0.0268553663045168	
486	80.195812797525	0.473907470703125	48.4999998775493	0.00584918027743697	
487	80.2958127972726	0.474029541015625	48.5999998772968	0.00223794719204307	
488	80.3958127970201	0.47454833984375	48.6999998770443	0.00829057674854994	
489	80.4958127967676	0.474273681640625	48.7999998767918	-0.0106811113655567	
490	80.5958127965151	0.4736328125	48.8999998765394	-0.00681556668132544	
491	80.6958127962627	0.473480224609375	48.9999998762869	0.00376382027752697	
492	80.7958127960102	0.472991943359375	49.0999998760344	-0.00930782593786716	
493	80.8958127957577	0.473724365234375	49.1999998757819	0.0186156518757343	
494	80.9958127955052	0.474639892578125	49.2999998755295	0.00661211693659425	
495	81.0958127952528	0.475311279296875	49.399999875277	0.00406899489462376	
496	81.1958127950003	0.476165771484375	49.4999998750245	0.0108845615759492	
497	81.2958127947478	0.47613525390625	49.599999874772	-0.00829057674854994	
498	81.3958127944953	0.47601318359375	49.6999998745196	0.000966386287473142	
499	81.4958127942429	0.475372314453125	49.7999998742671	-0.0104267997667193	
500	81.5958127939904	0.47613525390625	49.8999998740146	0.0210570488125086	
501	81.6958127937379	0.47509765625	49.9999998737621	-0.0300596989691257	
502	81.7958127934854	0.475311279296875	50.0999998735097	0.0185647886246443	
503	81.8958127932329	0.47576904296875	50.1999998732572	0.00244139693677425	
504	81.9958127929805	0.47637939453125	50.2999998730047	0.00656125415116549	
505	82.095812792728	0.476470947265625	50.3999998727522	-0.00391640746966004	
506	82.1958127924755	0.47686767578125	50.4999998724998	0.00823971442878246	
507	82.295812792223	0.476165771484375	50.5999998722473	-0.0171915031969547	
508	82.3958127919706	0.475494384765625	50.6999998719948	-0.00279743410646915	
509	82.4958127917181	0.47601318359375	50.7999998717423	0.0150044187903404	
510	82.5958127914656	0.475860595703125	50.8999998714899	-0.0110880108550191	
511	82.6958127912131	0.47662353515625	50.9999998712374	0.0174966789782047	
512	82.7958127909607	0.47662353515625	51.0999998709849	-0.00940955057740211	
513	82.8958127907082	0.475830078125	51.1999998707324	-0.0120035354048014	
514	82.9958127904557	0.476226806640625	51.29999987048	0.016530292108655	
515	83.0958127902032	0.475555419921875	51.3999998702275	-0.0195820387452841	
516	83.1958127899508	0.475799560546875	51.499999869975	0.0136311333626509	
517	83.2958127896983	0.47601318359375	51.5999998697225	-0.00116983603220433	
518	83.3958127894458	0.475799560546875	51.69999986947	-0.00559486821293831	
519	83.4958127891933	0.4764404296875	51.7999998692176	0.0149535564705729	
520	83.5958127889409	0.474700927734375	51.8999998689651	-0.0400796011090279	
521	83.6958127886884	0.4749755859375	51.9999998687126	0.0274657160043716	
522	83.7958127884359	0.475128173828125	52.0999998684601	-0.00620521744713187	
523	83.8958127881834	0.474853515625	52.1999998682077	-0.00590004259720445	
524	83.995812787931	0.474761962890625	52.2999998679552	0.00203449744731188	
525	84.0958127876785	0.474517822265625	52.3999998677027	-0.00432330695912242	
526	84.195812787426	0.474151611328125	52.4999998674502	-0.00417071999981999	
527	84.2958127871735	0.47344970703125	52.5999998671978	-0.00940955057740211	
528	84.3958127869211	0.474395751953125	52.6999998669453	0.0243122447282076	
529	84.4958127866686	0.472900390625	52.7999998666928	-0.0407916754484177	
530	84.5958127864161	0.473358154296875	52.8999998664403	0.0289915893226862	
531	84.6958127861636	0.472137451171875	52.9999998661879	-0.0327045470476151	
532	84.7958127859112	0.472381591796875	53.0999998659354	0.0202432498335838	
533	84.8958127856587	0.472930908203125	53.1999998656829	0.00315347104333341	
534	84.9958127854062	0.47296142578125	53.2999998654304	-0.00503538129851222	
535	85.0958127851537	0.471771240234375	53.399999865178	-0.0203449744731188	
536	85.1958127849012	0.471588134765625	53.4999998649255	0.0106302490457892	
537	85.2958127846488	0.47174072265625	53.599999864673	0.000966386287473142	
538	85.3958127843963	0.471405029296875	53.6999998644205	-0.00854488927870989	
539	85.4958127841438	0.471527099609375	53.7999998641681	0.00666297925636172	
540	85.5958127838913	0.470794677734375	53.8999998639156	-0.0159708056598902	
541	85.6958127836389	0.47161865234375	53.9999998636631	0.0240579321980476	
542	85.7958127833864	0.4716796875	54.0999998634106	-0.0109354238957167	
543	85.8958127831339	0.47113037109375	54.1999998631582	-0.00803626514971256	
544	85.9958127828814	0.470428466796875	54.2999998629057	-0.00625607976689935	
545	86.095812782629	0.470947265625	54.3999998626532	0.0158690810203552	
546	86.1958127823765	0.4710693359375	54.4999998624007	-0.00615435466170311	
547	86.295812782124	0.47076416015625	54.5999998621483	-0.00528969336301088	
548	86.3958127818715	0.470428466796875	54.6999998618958	-0.00218708487227559	
549	86.4958127816191	0.47113037109375	54.7999998616433	0.0157673545181751	
550	86.5958127813666	0.471343994140625	54.8999998613908	-0.00539141846820712	
551	86.6958127811141	0.471343994140625	54.9999998611383	-0.000152587308548391	
552	86.7958127808616	0.470367431640625	55.0999998608859	-0.0171915031969547	
553	86.8958127806092	0.470733642578125	55.1999998606334	0.0181070268154144	
554	86.9958127803567	0.469818115234375	55.2999998603809	-0.0243122447282076	
555	87.0958127801042	0.470428466796875	55.3999998601284	0.0230915453284979	
556	87.1958127798517	0.470550537109375	55.499999859876	-0.00793454051017761	
557	87.2958127795993	0.470123291015625	55.5999998596235	-0.00722246617078781	
558	87.3958127793468	0.47088623046875	55.699999859371	0.019378587603569	
559	87.4958127790943	0.4700927734375	55.7999998591185	-0.0248717311769724	
560	87.5958127788418	0.4700927734375	55.8999998588661	0.0118000851944089	
561	87.6958127785894	0.468994140625	55.9999998586136	-0.022786371409893	
562	87.7958127783369	0.46990966796875	56.0999998583611	0.0296019371598959	
563	87.8958127780844	0.470947265625	56.1999998581086	0.00467934412881732	
564	87.9958127778319	0.47125244140625	56.2999998578562	-0.00345864566043019	
565	88.0958127775795	0.472137451171875	56.3999998576037	0.01612339168787	
566	88.195812777327	0.472137451171875	56.4999998573512	-0.00930782593786716	
567	88.2958127770745	0.473358154296875	56.5999998570987	0.0253294929862022	
568	88.395812776822	0.4716796875	56.6999998568463	-0.0450132563710213	
569	88.4958127765696	0.47125244140625	56.7999998565938	0.0158182177692652	
570	88.5958127763171	0.471771240234375	56.8999998563413	0.00890092644840479	
571	88.6958127760646	0.470550537109375	56.9999998560888	-0.0298562496900558	
572	88.7958127758121	0.471649169921875	57.0999998558364	0.0361123308539391	
573	88.8958127755596	0.4718017578125	57.1999998555839	-0.0140888951718807	
574	88.9958127753072	0.472076416015625	57.2999998553314	0.00691729132086039	
575	89.0958127750547	0.472259521484375	57.3999998550789	0.00066121167037636	
576	89.1958127748022	0.47113037109375	57.4999998548265	-0.0219217091798782	
577	89.2958127745497	0.470672607421875	57.599999854574	0.00539141846820712	
578	89.3958127742973	0.4708251953125	57.6999998543215	0.00437416974455118	
579	89.4958127740448	0.471832275390625	57.799999854069	0.0151570057496428	
580	89.5958127737923	0.471343994140625	57.8999998538166	-0.0201923865824938	
581	89.6958127735398	0.472381591796875	57.9999998535641	0.0280760657042265	
582	89.7958127732874	0.472808837890625	58.0999998533116	-0.00590004259720445	
583	89.8958127730349	0.471466064453125	58.1999998530591	-0.026143291965127	
584	89.9958127727824	0.472442626953125	58.2999998528066	0.0349933579564095	
585	90.0958127725299	0.472564697265625	58.3999998525542	-0.0136311333626509	
586	90.1958127722775	0.472137451171875	58.4999998523017	-0.00600176770240068	
587	90.295812772025	0.471923828125	58.5999998520492	0.00147501064930111	
588	90.3958127717725	0.471771240234375	58.6999998517967	-0.0017293228302151	
589	90.49581277152	0.4732666015625	58.7999998515443	0.0284829642623663	
590	90.5958127712676	0.474609375	58.8999998512918	0.00666297925636172	
591	90.6958127710151	0.474365234375	58.9999998510393	-0.0151570057496428	
592	90.7958127707626	0.474273681640625	59.0999998507868	0.00564573053270578	
593	90.8958127705101	0.473663330078125	59.1999998505344	-0.0109354238957167	
594	90.9958127702577	0.47381591796875	59.2999998502819	0.00961300078779459	
595	91.0958127700052	0.47296142578125	59.3999998500294	-0.019480312243104	
596	91.1958127697527	0.47442626953125	59.4999998497769	0.0373330265283585	
597	91.2958127695002	0.4747314453125	59.5999998495245	-0.0143432067707181	
598	91.3958127692478	0.475250244140625	59.699999849272	0.0108336992561817	
599	91.4958127689953	0.475006103515625	59.7999998490195	-0.00951127521693707	
600	91.5958127687428	0.475311279296875	59.899999848767	0.0101724872365594	
