Index	Potential applied (V)	Time (s)	WE(1).Current (A)	WE(1).Potential (V)
1	0.00244140625	287.534153274046	-6.243896484375E-05	0.00257568359375
2	0.0048828125	287.558553273984	-6.0760498046875E-05	0.0050201416015625
3	0.00732421875	287.582953273923	-6.121826171875E-05	0.007476806640625
4	0.009765625	287.607353273861	-6.0455322265625E-05	0.0099212646484375
5	0.01220703125	287.6317532738	-6.011962890625E-05	0.0123687744140625
6	0.0146484375	287.656153273738	-6.0546875E-05	0.014801025390625
7	0.01708984375	287.680553273676	-5.9051513671875E-05	0.017236328125
8	0.01953125	287.704953273615	-5.99365234375E-05	0.019671630859375
9	0.02197265625	287.729353273553	-5.8074951171875E-05	0.02213134765625
10	0.0244140625	287.753753273492	-5.9112548828125E-05	0.0245513916015625
11	0.02685546875	287.77815327343	-5.8013916015625E-05	0.0270111083984375
12	0.029296875	287.802553273368	-5.7891845703125E-05	0.0294403076171875
13	0.03173828125	287.826953273307	-5.7708740234375E-05	0.03189697265625
14	0.0341796875	287.851353273245	-5.6732177734375E-05	0.03433837890625
15	0.03662109375	287.875753273184	-5.7708740234375E-05	0.0367645263671875
16	0.0390625	287.900153273122	-5.584716796875E-05	0.0392242431640625
17	0.04150390625	287.92455327306	-5.67626953125E-05	0.041656494140625
18	0.0439453125	287.948953272999	-5.5206298828125E-05	0.044091796875
19	0.04638671875	287.973353272937	-5.572509765625E-05	0.04656982421875
20	0.048828125	287.997753272876	-5.52978515625E-05	0.0489593505859375
21	0.05126953125	288.022153272814	-5.45654296875E-05	0.0513916015625
22	0.0537109375	288.046553272752	-5.5023193359375E-05	0.05377197265625
23	0.05615234375	288.070953272691	-5.3436279296875E-05	0.056243896484375
24	0.05859375	288.095353272629	-5.462646484375E-05	0.058624267578125
25	0.06103515625	288.119753272568	-5.2886962890625E-05	0.061126708984375
26	0.0634765625	288.144153272506	-5.3436279296875E-05	0.063568115234375
27	0.06591796875	288.168553272444	-5.2520751953125E-05	0.0660400390625
28	0.068359375	288.192953272383	-5.242919921875E-05	0.068450927734375
29	0.07080078125	288.217353272321	-5.2642822265625E-05	0.07080078125
30	0.0732421875	288.24175327226	-5.1361083984375E-05	0.073272705078125
31	0.07568359375	288.266153272198	-5.2215576171875E-05	0.075775146484375
32	0.078125	288.290553272136	-5.029296875E-05	0.07818603515625
33	0.08056640625	288.314953272075	-5.145263671875E-05	0.080657958984375
34	0.0830078125	288.339353272013	-5.0201416015625E-05	0.083038330078125
35	0.08544921875	288.363753271952	-5.029296875E-05	0.08551025390625
36	0.087890625	288.38815327189	-4.9957275390625E-05	0.087982177734375
37	0.09033203125	288.412553271828	-4.9102783203125E-05	0.090423583984375
38	0.0927734375	288.436953271767	-4.99267578125E-05	0.09283447265625
39	0.09521484375	288.461353271705	-4.820556640625E-05	0.09527587890625
40	0.09765625	288.485753271643	-4.9072265625E-05	0.0977783203125
41	0.10009765625	288.510153271582	-4.744873046875E-05	0.10015869140625
42	0.1025390625	288.53455327152	-4.80865478515625E-05	0.102691650390625
43	0.10498046875	288.558953271459	-4.747314453125E-05	0.105072021484375
44	0.107421875	288.583353271397	-4.68841552734375E-05	0.107513427734375
45	0.10986328125	288.607753271335	-4.71221923828125E-05	0.109954833984375
46	0.1123046875	288.632153271274	-4.56939697265625E-05	0.112457275390625
47	0.11474609375	288.656553271212	-4.66583251953125E-05	0.1148681640625
48	0.1171875	288.680953271151	-4.47998046875E-05	0.11737060546875
49	0.11962890625	288.705353271089	-4.54437255859375E-05	0.1197509765625
50	0.1220703125	288.729753271027	-4.43572998046875E-05	0.1221923828125
51	0.12451171875	288.754153270966	-4.4390869140625E-05	0.124664306640625
52	0.126953125	288.778553270904	-4.4464111328125E-05	0.1270751953125
53	0.12939453125	288.802953270843	-4.3475341796875E-05	0.12945556640625
54	0.1318359375	288.827353270781	-4.40948486328125E-05	0.131927490234375
55	0.13427734375	288.851753270719	-4.2218017578125E-05	0.1343994140625
56	0.13671875	288.876153270658	-4.3341064453125E-05	0.1368408203125
57	0.13916015625	288.900553270596	-4.18212890625E-05	0.139251708984375
58	0.1416015625	288.924953270535	-4.19708251953125E-05	0.141693115234375
59	0.14404296875	288.949353270473	-4.15618896484375E-05	0.144134521484375
60	0.146484375	288.973753270411	-4.0838623046875E-05	0.146636962890625
61	0.14892578125	288.99815327035	-4.1363525390625E-05	0.149017333984375
62	0.1513671875	289.022553270288	-3.98223876953125E-05	0.1514892578125
63	0.15380859375	289.046953270227	-4.075927734375E-05	0.153900146484375
64	0.15625	289.071353270165	-3.8934326171875E-05	0.156402587890625
65	0.15869140625	289.095753270103	-3.98284912109375E-05	0.15875244140625
66	0.1611328125	289.120153270042	-3.89984130859375E-05	0.1612548828125
67	0.16357421875	289.14455326998	-3.856201171875E-05	0.163665771484375
68	0.166015625	289.168953269919	-3.87054443359375E-05	0.1661376953125
69	0.16845703125	289.193353269857	-3.73748779296875E-05	0.168548583984375
70	0.1708984375	289.217753269795	-3.84307861328125E-05	0.170989990234375
71	0.17333984375	289.242153269734	-3.66302490234375E-05	0.17340087890625
72	0.17578125	289.266553269672	-3.72833251953125E-05	0.1759033203125
73	0.17822265625	289.290953269611	-3.59222412109375E-05	0.1783447265625
74	0.1806640625	289.315353269549	-3.61541748046875E-05	0.1807861328125
75	0.18310546875	289.339753269487	-3.58917236328125E-05	0.183197021484375
76	0.185546875	289.364153269426	-3.4979248046875E-05	0.185638427734375
77	0.18798828125	289.388553269364	-3.55743408203125E-05	0.188079833984375
78	0.1904296875	289.412953269303	-3.37677001953125E-05	0.1905517578125
79	0.19287109375	289.437353269241	-3.4942626953125E-05	0.192901611328125
80	0.1953125	289.461753269179	-3.3258056640625E-05	0.1954345703125
81	0.19775390625	289.486153269118	-3.37188720703125E-05	0.1978759765625
82	0.2001953125	289.510553269056	-3.29833984375E-05	0.200286865234375
83	0.20263671875	289.534953268995	-3.2501220703125E-05	0.2027587890625
84	0.205078125	289.559353268933	-3.297119140625E-05	0.20513916015625
85	0.20751953125	289.583753268871	-3.1329345703125E-05	0.207611083984375
86	0.2099609375	289.60815326881	-3.21868896484375E-05	0.210052490234375
87	0.21240234375	289.632553268748	-3.01116943359375E-05	0.21240234375
88	0.21484375	289.656953268686	-3.0987548828125E-05	0.21490478515625
89	0.21728515625	289.681353268625	-2.9998779296875E-05	0.21734619140625
90	0.2197265625	289.705753268563	-2.972412109375E-05	0.21978759765625
91	0.22216796875	289.730153268502	-2.9461669921875E-05	0.222259521484375
92	0.224609375	289.75455326844	-2.85125732421875E-05	0.224639892578125
93	0.22705078125	289.778953268378	-2.94403076171875E-05	0.22705078125
94	0.2294921875	289.803353268317	-2.75543212890625E-05	0.22955322265625
95	0.23193359375	289.827753268255	-2.83477783203125E-05	0.23199462890625
96	0.234375	289.852153268194	-2.67791748046875E-05	0.234466552734375
97	0.23681640625	289.876553268132	-2.72125244140625E-05	0.23687744140625
98	0.2392578125	289.90095326807	-2.67669677734375E-05	0.2392578125
99	0.24169921875	289.925353268009	-2.601318359375E-05	0.241729736328125
100	0.244140625	289.949753267947	-2.63824462890625E-05	0.24420166015625
101	0.24658203125	289.974153267886	-2.4810791015625E-05	0.24664306640625
102	0.2490234375	289.998553267824	-2.6226806640625E-05	0.24908447265625
103	0.25146484375	290.022953267762	-2.43255615234375E-05	0.251495361328125
104	0.25390625	290.047353267701	-2.47161865234375E-05	0.25396728515625
105	0.25634765625	290.071753267639	-2.38922119140625E-05	0.25640869140625
106	0.2587890625	290.096153267578	-2.364501953125E-05	0.25885009765625
107	0.26123046875	290.120553267516	-2.38311767578125E-05	0.261260986328125
108	0.263671875	290.144953267454	-2.26104736328125E-05	0.26373291015625
109	0.26611328125	290.169353267393	-2.32574462890625E-05	0.26617431640625
110	0.2685546875	290.193753267331	-2.1307373046875E-05	0.268585205078125
111	0.27099609375	290.21815326727	-2.2515869140625E-05	0.27099609375
112	0.2734375	290.242553267208	-2.13958740234375E-05	0.273529052734375
113	0.27587890625	290.266953267146	-2.11761474609375E-05	0.27593994140625
114	0.2783203125	290.291353267085	-2.08709716796875E-05	0.278350830078125
115	0.28076171875	290.315753267023	-2.0050048828125E-05	0.280853271484375
116	0.283203125	290.340153266962	-2.06451416015625E-05	0.283233642578125
117	0.28564453125	290.3645532669	-1.86431884765625E-05	0.285675048828125
118	0.2880859375	290.388953266838	-1.96258544921875E-05	0.2880859375
119	0.29052734375	290.413353266777	-1.8115234375E-05	0.290557861328125
120	0.29296875	290.437753266715	-1.84539794921875E-05	0.293060302734375
121	0.29541015625	290.462153266654	-1.78924560546875E-05	0.295440673828125
122	0.2978515625	290.486553266592	-1.71966552734375E-05	0.2978515625
123	0.30029296875	290.51095326653	-1.7388916015625E-05	0.30029296875
124	0.302734375	290.535353266469	-1.6094970703125E-05	0.302764892578125
125	0.30517578125	290.559753266407	-1.717529296875E-05	0.30517578125
126	0.3076171875	290.584153266346	-1.53900146484375E-05	0.307586669921875
127	0.31005859375	290.608553266284	-1.5899658203125E-05	0.31011962890625
128	0.3125	290.632953266222	-1.46484375E-05	0.31256103515625
129	0.31494140625	290.657353266161	-1.4727783203125E-05	0.31500244140625
130	0.3173828125	290.681753266099	-1.47125244140625E-05	0.317352294921875
131	0.31982421875	290.706153266038	-1.331787109375E-05	0.31982421875
132	0.322265625	290.730553265976	-1.40106201171875E-05	0.322265625
133	0.32470703125	290.754953265914	-1.20635986328125E-05	0.32476806640625
134	0.3271484375	290.779353265853	-1.326904296875E-05	0.3271484375
135	0.32958984375	290.803753265791	-1.1895751953125E-05	0.32958984375
136	0.33203125	290.828153265729	-1.20513916015625E-05	0.332061767578125
137	0.33447265625	290.852553265668	-1.1651611328125E-05	0.33447265625
138	0.3369140625	290.876953265606	-1.0699462890625E-05	0.336944580078125
139	0.33935546875	290.901353265545	-1.12884521484375E-05	0.339385986328125
140	0.341796875	290.925753265483	-9.5672607421875E-06	0.341796875
141	0.34423828125	290.950153265421	-1.0455322265625E-05	0.34423828125
142	0.3466796875	290.97455326536	-8.88671875E-06	0.3466796875
143	0.34912109375	290.998953265298	-9.423828125E-06	0.349090576171875
144	0.3515625	291.023353265237	-8.6395263671875E-06	0.3515625
145	0.35400390625	291.047753265175	-8.251953125E-06	0.353973388671875
146	0.3564453125	291.072153265113	-8.319091796875E-06	0.3564453125
147	0.35888671875	291.096553265052	-6.89697265625E-06	0.3590087890625
148	0.361328125	291.12095326499	-7.84912109375E-06	0.36138916015625
149	0.36376953125	291.145353264929	-5.84716796875E-06	0.36383056640625
150	0.3662109375	291.169753264867	-6.3507080078125E-06	0.3662109375
151	0.36865234375	291.194153264805	-5.072021484375E-06	0.368682861328125
152	0.37109375	291.218553264744	-5.224609375E-06	0.3712158203125
153	0.37353515625	291.242953264682	-5.0262451171875E-06	0.37353515625
154	0.3759765625	291.267353264621	-3.7353515625E-06	0.37603759765625
155	0.37841796875	291.291753264559	-4.144287109375E-06	0.37841796875
156	0.380859375	291.316153264497	-2.58056640625E-06	0.380950927734375
157	0.38330078125	291.340553264436	-3.4576416015625E-06	0.38330078125
158	0.3857421875	291.364953264374	-1.884765625E-06	0.3857421875
159	0.38818359375	291.389353264313	-2.13226318359375E-06	0.388214111328125
160	0.390625	291.413753264251	-1.26495361328125E-06	0.390655517578125
161	0.39306640625	291.438153264189	-5.6396484375E-07	0.393096923828125
162	0.3955078125	291.462553264128	-8.1207275390625E-07	0.39556884765625
163	0.39794921875	291.486953264066	7.8155517578125E-07	0.397918701171875
164	0.400390625	291.511353264005	-6.622314453125E-08	0.400360107421875
165	0.40283203125	291.535753263943	1.7010498046875E-06	0.40283203125
166	0.4052734375	291.560153263881	9.8907470703125E-07	0.40521240234375
167	0.40771484375	291.58455326382	2.19573974609375E-06	0.407684326171875
168	0.41015625	291.608953263758	2.45025634765625E-06	0.4100341796875
169	0.41259765625	291.633353263697	2.64617919921875E-06	0.412567138671875
170	0.4150390625	291.657753263635	4.2327880859375E-06	0.41497802734375
171	0.41748046875	291.682153263573	3.39569091796875E-06	0.4173583984375
172	0.419921875	291.706553263512	5.413818359375E-06	0.4197998046875
173	0.42236328125	291.73095326345	4.8095703125E-06	0.422210693359375
174	0.4248046875	291.755353263389	6.2896728515625E-06	0.424652099609375
175	0.42724609375	291.779753263327	6.463623046875E-06	0.4271240234375
176	0.4296875	291.804153263265	6.8572998046875E-06	0.429595947265625
177	0.43212890625	291.828553263204	7.6904296875E-06	0.43194580078125
178	0.4345703125	291.852953263142	7.501220703125E-06	0.4344482421875
179	0.43701171875	291.877353263081	9.271240234375E-06	0.436920166015625
180	0.439453125	291.901753263019	8.1756591796875E-06	0.43914794921875
181	0.44189453125	291.926153262957	1.06689453125E-05	0.44171142578125
182	0.4443359375	291.950553262896	1.031494140625E-05	0.444122314453125
183	0.44677734375	291.974953262834	1.16119384765625E-05	0.446563720703125
184	0.44921875	291.999353262773	1.20147705078125E-05	0.449005126953125
185	0.45166015625	292.023753262711	1.1712646484375E-05	0.451446533203125
186	0.4541015625	292.048153262649	1.34613037109375E-05	0.453857421875
187	0.45654296875	292.072553262588	1.27655029296875E-05	0.45623779296875
188	0.458984375	292.096953262526	1.4544677734375E-05	0.458709716796875
189	0.46142578125	292.121353262464	1.43890380859375E-05	0.461029052734375
190	0.4638671875	292.145753262403	1.524658203125E-05	0.463592529296875
191	0.46630859375	292.170153262341	1.5509033203125E-05	0.465911865234375
192	0.46875	292.19455326228	1.60491943359375E-05	0.468414306640625
193	0.47119140625	292.218953262218	1.748046875E-05	0.4708251953125
194	0.4736328125	292.243353262156	1.71478271484375E-05	0.4732666015625
195	0.47607421875	292.267753262095	1.9097900390625E-05	0.4757080078125
196	0.478515625	292.292153262033	1.87530517578125E-05	0.47808837890625
197	0.48095703125	292.316553261972	2.03125E-05	0.480621337890625
198	0.4833984375	292.34095326191	2.025146484375E-05	0.48297119140625
199	0.48583984375	292.365353261848	2.0819091796875E-05	0.485382080078125
200	0.48828125	292.389753261787	2.16888427734375E-05	0.487762451171875
201	0.49072265625	292.414153261725	2.19085693359375E-05	0.490203857421875
202	0.4931640625	292.438553261664	2.3779296875E-05	0.492584228515625
203	0.49560546875	292.462953261602	2.3028564453125E-05	0.49505615234375
204	0.498046875	292.48735326154	2.50762939453125E-05	0.49749755859375
205	0.50048828125	292.511753261479	2.4798583984375E-05	0.4998779296875
206	0.5029296875	292.536153261417	2.6055908203125E-05	0.50238037109375
207	0.50537109375	292.560553261356	2.66815185546875E-05	0.5047607421875
208	0.5078125	292.584953261294	2.6800537109375E-05	0.507171630859375
209	0.51025390625	292.609353261232	2.8509521484375E-05	0.509613037109375
210	0.5126953125	292.633753261171	2.83172607421875E-05	0.511993408203125
211	0.51513671875	292.658153261109	3.0499267578125E-05	0.514434814453125
212	0.517578125	292.682553261048	3.0206298828125E-05	0.517364501953125
213	0.52001953125	292.706953260986	3.19793701171875E-05	0.519927978515625
214	0.5224609375	292.731353260924	3.25225830078125E-05	0.5223388671875
215	0.52490234375	292.755753260863	3.3489990234375E-05	0.524810791015625
216	0.52734375	292.780153260801	3.41644287109375E-05	0.5272216796875
217	0.52978515625	292.80455326074	3.40484619140625E-05	0.52960205078125
218	0.5322265625	292.828953260678	3.63189697265625E-05	0.53204345703125
219	0.53466796875	292.853353260616	3.621826171875E-05	0.53448486328125
220	0.537109375	292.877753260555	3.8433837890625E-05	0.536956787109375
221	0.53955078125	292.902153260493	3.8336181640625E-05	0.539398193359375
222	0.5419921875	292.926553260432	3.9556884765625E-05	0.541900634765625
223	0.54443359375	292.95095326037	4.08111572265625E-05	0.5443115234375
224	0.546875	292.975353260308	4.11834716796875E-05	0.546722412109375
225	0.54931640625	292.999753260247	4.3353271484375E-05	0.5491943359375
226	0.5517578125	293.024153260185	4.2730712890625E-05	0.5516357421875
227	0.55419921875	293.048553260124	4.56451416015625E-05	0.554046630859375
228	0.556640625	293.072953260062	4.58831787109375E-05	0.55645751953125
229	0.55908203125	293.09735326	4.72747802734375E-05	0.558868408203125
230	0.5615234375	293.121753259939	4.803466796875E-05	0.561370849609375
231	0.56396484375	293.146153259877	4.8828125E-05	0.563812255859375
232	0.56640625	293.170553259816	5.1116943359375E-05	0.56622314453125
233	0.56884765625	293.194953259754	5.096435546875E-05	0.568695068359375
234	0.5712890625	293.219353259692	5.364990234375E-05	0.57110595703125
235	0.57373046875	293.243753259631	5.3314208984375E-05	0.5736083984375
236	0.576171875	293.268153259569	5.560302734375E-05	0.575958251953125
237	0.57861328125	293.292553259507	5.6396484375E-05	0.578399658203125
238	0.5810546875	293.316953259446	5.76171875E-05	0.58087158203125
239	0.58349609375	293.341353259384	5.938720703125E-05	0.58331298828125
240	0.5859375	293.365753259323	5.9783935546875E-05	0.585784912109375
241	0.58837890625	293.390153259261	6.2347412109375E-05	0.588165283203125
242	0.5908203125	293.414553259199	6.23779296875E-05	0.59063720703125
243	0.59326171875	293.438953259138	6.5460205078125E-05	0.593109130859375
244	0.595703125	293.463353259076	6.5155029296875E-05	0.595489501953125
245	0.59814453125	293.487753259015	6.7108154296875E-05	0.597991943359375
246	0.6005859375	293.512153258953	6.8756103515625E-05	0.600341796875
247	0.60302734375	293.536553258891	6.9671630859375E-05	0.602813720703125
248	0.60546875	293.56095325883	7.2052001953125E-05	0.605255126953125
249	0.60791015625	293.585353258768	7.196044921875E-05	0.60772705078125
250	0.6103515625	293.609753258707	7.4859619140625E-05	0.610107421875
251	0.61279296875	293.634153258645	7.5653076171875E-05	0.612640380859375
252	0.615234375	293.658553258583	7.867431640625E-05	0.615020751953125
253	0.61767578125	293.682953258522	7.965087890625E-05	0.617462158203125
254	0.6201171875	293.70735325846	8.056640625E-05	0.619873046875
255	0.62255859375	293.731753258399	8.30078125E-05	0.622283935546875
256	0.625	293.756153258337	8.36181640625E-05	0.62481689453125
257	0.62744140625	293.780553258275	8.642578125E-05	0.627227783203125
258	0.6298828125	293.804953258214	8.7188720703125E-05	0.629669189453125
259	0.63232421875	293.829353258152	8.9874267578125E-05	0.632049560546875
260	0.634765625	293.853753258091	9.1339111328125E-05	0.634490966796875
261	0.63720703125	293.878153258029	9.3353271484375E-05	0.636932373046875
262	0.6396484375	293.902553257967	9.515380859375E-05	0.639404296875
263	0.64208984375	293.926953257906	9.5947265625E-05	0.641815185546875
264	0.64453125	293.951353257844	9.92431640625E-05	0.644287109375
265	0.64697265625	293.975753257783	0.000100067138671875	0.646636962890625
266	0.6494140625	294.000153257721	0.00010357666015625	0.649078369140625
267	0.65185546875	294.024553257659	0.000103912353515625	0.651580810546875
268	0.654296875	294.048953257598	0.000106719970703125	0.6539306640625
269	0.65673828125	294.073353257536	0.000108306884765625	0.65643310546875
270	0.6591796875	294.097753257475	0.000110382080078125	0.658843994140625
271	0.66162109375	294.122153257413	0.000113494873046875	0.6612548828125
272	0.6640625	294.146553257351	0.0001143798828125	0.663726806640625
273	0.66650390625	294.17095325729	0.000117645263671875	0.666168212890625
274	0.6689453125	294.195353257228	0.000119140625	0.66864013671875
275	0.67138671875	294.219753257167	0.00012261962890625	0.6710205078125
276	0.673828125	294.244153257105	0.000124176025390625	0.6734619140625
277	0.67626953125	294.268553257043	0.00012567138671875	0.6759033203125
278	0.6787109375	294.292953256982	0.00012786865234375	0.678375244140625
279	0.68115234375	294.31735325692	0.000130096435546875	0.68072509765625
280	0.68359375	294.341753256859	0.000133056640625	0.68316650390625
281	0.68603515625	294.366153256797	0.00013427734375	0.68572998046875
282	0.6884765625	294.390553256735	0.00013751220703125	0.688018798828125
283	0.69091796875	294.414953256674	0.0001387939453125	0.69049072265625
284	0.693359375	294.439353256612	0.0001417236328125	0.692901611328125
285	0.69580078125	294.46375325655	0.000144073486328125	0.695343017578125
286	0.6982421875	294.488153256489	0.000146820068359375	0.69775390625
287	0.70068359375	294.512553256427	0.00015106201171875	0.7001953125
288	0.703125	294.536953256366	0.00015301513671875	0.702667236328125
289	0.70556640625	294.561353256304	0.00015679931640625	0.705047607421875
290	0.7080078125	294.585753256242	0.000158447265625	0.70745849609375
291	0.71044921875	294.610153256181	0.0001619873046875	0.7099609375
292	0.712890625	294.634553256119	0.0001640625	0.712310791015625
293	0.71533203125	294.658953256058	0.000167449951171875	0.71484375
294	0.7177734375	294.683353255996	0.000170257568359375	0.717193603515625
295	0.72021484375	294.707753255934	0.0001719970703125	0.719635009765625
296	0.72265625	294.732153255873	0.00017706298828125	0.7220458984375
297	0.72509765625	294.756553255811	0.000178131103515625	0.72454833984375
298	0.7275390625	294.78095325575	0.000182861328125	0.727020263671875
299	0.72998046875	294.805353255688	0.00018499755859375	0.729400634765625
300	0.732421875	294.829753255626	0.000188446044921875	0.731842041015625
301	0.73486328125	294.854153255565	0.000192230224609375	0.734222412109375
302	0.7373046875	294.878553255503	0.000194580078125	0.7366943359375
303	0.73974609375	294.902953255442	0.0001988525390625	0.7391357421875
304	0.7421875	294.92735325538	0.000200897216796875	0.741546630859375
305	0.74462890625	294.951753255318	0.0002056884765625	0.74395751953125
306	0.7470703125	294.976153255257	0.0002086181640625	0.74639892578125
307	0.74951171875	295.000553255195	0.000211700439453125	0.74884033203125
308	0.751953125	295.024953255134	0.000215301513671875	0.75164794921875
309	0.75439453125	295.049353255072	0.0002191162109375	0.75347900390625
310	0.7568359375	295.07375325501	0.000223602294921875	0.7562255859375
311	0.75927734375	295.098153254949	0.000226287841796875	0.75836181640625
312	0.76171875	295.122553254887	0.000231231689453125	0.76141357421875
313	0.76416015625	295.146953254826	0.00023443603515625	0.76385498046875
314	0.7666015625	295.171353254764	0.000238983154296875	0.7659912109375
315	0.76904296875	295.195753254702	0.000243194580078125	0.76812744140625
316	0.771484375	295.220153254641	0.00024761962890625	0.77056884765625
317	0.77392578125	295.244553254579	0.000252532958984375	0.7733154296875
318	0.7763671875	295.268953254518	0.000255584716796875	0.77545166015625
319	0.77880859375	295.293353254456	0.00026165771484375	0.777587890625
320	0.78125	295.317753254394	0.00026507568359375	0.780029296875
321	0.78369140625	295.342153254333	0.00027117919921875	0.78277587890625
322	0.7861328125	295.366553254271	0.000274017333984375	0.78521728515625
323	0.78857421875	295.39095325421	0.00027777099609375	0.78765869140625
324	0.791015625	295.415353254148	0.000283447265625	0.7904052734375
325	0.79345703125	295.439753254086	0.00028692626953125	0.792236328125
326	0.7958984375	295.464153254025	0.00029315185546875	0.79498291015625
327	0.79833984375	295.488553253963	0.000296539306640625	0.79742431640625
328	0.80078125	295.512953253902	0.000303009033203125	0.79986572265625
329	0.80322265625	295.53735325384	0.00030755615234375	0.8026123046875
330	0.8056640625	295.561753253778	0.000314117431640625	0.8050537109375
331	0.80810546875	295.586153253717	0.000319580078125	0.8074951171875
332	0.810546875	295.610553253655	0.0003253173828125	0.8099365234375
333	0.81298828125	295.634953253593	0.0003321533203125	0.811767578125
334	0.8154296875	295.659353253532	0.000337158203125	0.81451416015625
335	0.81787109375	295.68375325347	0.000343719482421875	0.81756591796875
336	0.8203125	295.708153253409	0.000348480224609375	0.8197021484375
337	0.82275390625	295.732553253347	0.000355133056640625	0.82183837890625
338	0.8251953125	295.756953253285	0.00036053466796875	0.8245849609375
339	0.82763671875	295.781353253224	0.0003675537109375	0.8270263671875
340	0.830078125	295.805753253162	0.00037518310546875	0.8294677734375
341	0.83251953125	295.830153253101	0.000380615234375	0.83160400390625
342	0.8349609375	295.854553253039	0.00038848876953125	0.83404541015625
343	0.83740234375	295.878953252977	0.00039453125	0.836181640625
344	0.83984375	295.903353252916	0.000402313232421875	0.83831787109375
345	0.84228515625	295.927753252854	0.000408905029296875	0.84197998046875
346	0.8447265625	295.952153252793	0.000416717529296875	0.84381103515625
347	0.84716796875	295.976553252731	0.000424407958984375	0.84625244140625
348	0.849609375	296.000953252669	0.000431610107421875	0.8489990234375
349	0.85205078125	296.025353252608	0.000440399169921875	0.85113525390625
350	0.8544921875	296.049753252546	0.000447906494140625	0.853271484375
351	0.85693359375	296.074153252485	0.0004569091796875	0.85601806640625
352	0.859375	296.098553252423	0.000464202880859375	0.8587646484375
353	0.86181640625	296.122953252361	0.000473480224609375	0.86090087890625
354	0.8642578125	296.1473532523	0.000482421875	0.86334228515625
355	0.86669921875	296.171753252238	0.000490631103515625	0.8660888671875
356	0.869140625	296.196153252177	0.0005010986328125	0.8685302734375
357	0.87158203125	296.220553252115	0.00050933837890625	0.87066650390625
358	0.8740234375	296.244953252053	0.0005194091796875	0.87310791015625
359	0.87646484375	296.269353251992	0.0005279541015625	0.87554931640625
360	0.87890625	296.29375325193	0.00053863525390625	0.87799072265625
361	0.88134765625	296.318153251869	0.000548095703125	0.8807373046875
362	0.8837890625	296.342553251807	0.00055877685546875	0.88287353515625
363	0.88623046875	296.366953251745	0.00056915283203125	0.88531494140625
364	0.888671875	296.391353251684	0.0005792236328125	0.88714599609375
365	0.89111328125	296.415753251622	0.00059051513671875	0.889892578125
366	0.8935546875	296.440153251561	0.00060028076171875	0.8929443359375
367	0.89599609375	296.464553251499	0.00061279296875	0.8953857421875
368	0.8984375	296.488953251437	0.0006231689453125	0.89752197265625
369	0.90087890625	296.513353251376	0.00063507080078125	0.9002685546875
370	0.9033203125	296.537753251314	0.00064697265625	0.9027099609375
371	0.90576171875	296.562153251253	0.00065887451171875	0.90484619140625
372	0.908203125	296.586553251191	0.0006719970703125	0.906982421875
373	0.91064453125	296.610953251129	0.00068359375	0.91033935546875
374	0.9130859375	296.635353251068	0.00069732666015625	0.91217041015625
375	0.91552734375	296.659753251006	0.00070953369140625	0.9149169921875
376	0.91796875	296.684153250945	0.00072418212890625	0.91705322265625
377	0.92041015625	296.708553250883	0.00073699951171875	0.9197998046875
378	0.9228515625	296.732953250821	0.00075225830078125	0.921630859375
379	0.92529296875	296.75735325076	0.0007672119140625	0.9246826171875
380	0.927734375	296.781753250698	0.00078125	0.92681884765625
381	0.93017578125	296.806153250636	0.00079681396484375	0.928955078125
382	0.9326171875	296.830553250575	0.0008111572265625	0.93170166015625
383	0.93505859375	296.854953250513	0.00082733154296875	0.93414306640625
384	0.9375	296.879353250452	0.000843505859375	0.9368896484375
385	0.93994140625	296.90375325039	0.00086029052734375	0.938720703125
386	0.9423828125	296.928153250328	0.0008770751953125	0.941162109375
387	0.94482421875	296.952553250267	0.00089324951171875	0.94390869140625
388	0.947265625	296.976953250205	0.0009112548828125	0.94635009765625
389	0.94970703125	297.001353250144	0.0009295654296875	0.9490966796875
390	0.9521484375	297.025753250082	0.00094818115234375	0.95123291015625
391	0.95458984375	297.05015325002	0.000965576171875	0.9539794921875
392	0.95703125	297.074553249959	0.000985107421875	0.95672607421875
393	0.95947265625	297.098953249897	0.0010040283203125	0.95855712890625
394	0.9619140625	297.123353249836	0.001024169921875	0.96099853515625
395	0.96435546875	297.147753249774	0.00104461669921875	0.96343994140625
396	0.966796875	297.172153249712	0.00106475830078125	0.9661865234375
397	0.96923828125	297.196553249651	0.00108551025390625	0.9686279296875
398	0.9716796875	297.220953249589	0.00110687255859375	0.970458984375
399	0.97412109375	297.245353249528	0.001129150390625	0.97320556640625
400	0.9765625	297.269753249466	0.00115142822265625	0.9759521484375
401	0.97900390625	297.294153249404	0.00117401123046875	0.9783935546875
402	0.9814453125	297.318553249343	0.0011981201171875	0.9808349609375
403	0.98388671875	297.342953249281	0.00122161865234375	0.98297119140625
404	0.986328125	297.36735324922	0.00124755859375	0.98602294921875
405	0.98876953125	297.391753249158	0.0012713623046875	0.9881591796875
406	0.9912109375	297.416153249096	0.001297607421875	0.989990234375
407	0.99365234375	297.440553249035	0.00132293701171875	0.99273681640625
408	0.99609375	297.464953248973	0.0013494873046875	0.99578857421875
409	0.99853515625	297.489353248912	0.0013763427734375	0.99761962890625
410	1.0009765625	297.51375324885	0.00140380859375	1.00006103515625
411	1.00341796875	297.538153248788	0.0014324951171875	1.0028076171875
412	1.005859375	297.562553248727	0.0014605712890625	1.00494384765625
413	1.00830078125	297.586953248665	0.001490478515625	1.0076904296875
414	1.0107421875	297.611353248604	0.001519775390625	1.00982666015625
415	1.01318359375	297.635753248542	0.00155059814453125	1.0125732421875
416	1.015625	297.66015324848	0.00158172607421875	1.01470947265625
417	1.01806640625	297.684553248419	0.00161346435546875	1.016845703125
418	1.0205078125	297.708953248357	0.00164581298828125	1.01959228515625
419	1.02294921875	297.733353248296	0.00167816162109375	1.0223388671875
420	1.025390625	297.757753248234	0.00171234130859375	1.0247802734375
421	1.02783203125	297.782153248172	0.0017462158203125	1.02691650390625
422	1.0302734375	297.806553248111	0.0017816162109375	1.02935791015625
423	1.03271484375	297.830953248049	0.00181640625	1.0321044921875
424	1.03515625	297.855353247988	0.0018524169921875	1.03424072265625
425	1.03759765625	297.879753247926	0.00188934326171875	1.03607177734375
426	1.0400390625	297.904153247864	0.00192596435546875	1.03912353515625
427	1.04248046875	297.928553247803	0.00196441650390625	1.04095458984375
428	1.044921875	297.952953247741	0.00200225830078125	1.04461669921875
429	1.04736328125	297.97735324768	0.00204193115234375	1.046142578125
430	1.0498046875	298.001753247618	0.002081298828125	1.04888916015625
431	1.05224609375	298.026153247556	0.0021221923828125	1.05133056640625
432	1.0546875	298.050553247495	0.0021636962890625	1.05377197265625
433	1.05712890625	298.074953247433	0.00220458984375	1.05621337890625
434	1.0595703125	298.099353247371	0.00224761962890625	1.058349609375
435	1.06201171875	298.12375324731	0.00229034423828125	1.06109619140625
436	1.064453125	298.148153247248	0.00233428955078125	1.0638427734375
437	1.06689453125	298.172553247187	0.0023773193359375	1.065673828125
438	1.0693359375	298.196953247125	0.00242218017578125	1.06842041015625
439	1.07177734375	298.221353247063	0.0024676513671875	1.070556640625
440	1.07421875	298.245753247002	0.0025140380859375	1.07330322265625
441	1.07666015625	298.27015324694	0.00256134033203125	1.0760498046875
442	1.0791015625	298.294553246879	0.00260833740234375	1.0784912109375
443	1.08154296875	298.318953246817	0.00265899658203125	1.0809326171875
444	1.083984375	298.343353246755	0.00270538330078125	1.08306884765625
445	1.08642578125	298.367753246694	0.002755126953125	1.085205078125
446	1.0888671875	298.392153246632	0.0028033447265625	1.0882568359375
447	1.09130859375	298.416553246571	0.00285369873046875	1.0906982421875
448	1.09375	298.440953246509	0.0029034423828125	1.09283447265625
449	1.09619140625	298.465353246447	0.0029547119140625	1.09466552734375
450	1.0986328125	298.489753246386	0.003006591796875	1.09771728515625
451	1.10107421875	298.514153246324	0.00305816650390625	1.10015869140625
452	1.103515625	298.538553246263	0.00311126708984375	1.10198974609375
453	1.10595703125	298.562953246201	0.00316436767578125	1.104736328125
454	1.1083984375	298.587353246139	0.0032177734375	1.107177734375
455	1.11083984375	298.611753246078	0.00327178955078125	1.1102294921875
456	1.11328125	298.636153246016	0.00332611083984375	1.11236572265625
457	1.11572265625	298.660553245955	0.00338134765625	1.11480712890625
458	1.1181640625	298.684953245893	0.003436279296875	1.11663818359375
459	1.12060546875	298.709353245831	0.0034918212890625	1.11968994140625
460	1.123046875	298.73375324577	0.0035467529296875	1.121826171875
461	1.12548828125	298.758153245708	0.003602294921875	1.12457275390625
462	1.1279296875	298.782553245647	0.0036578369140625	1.1260986328125
463	1.13037109375	298.806953245585	0.00371307373046875	1.12945556640625
464	1.1328125	298.831353245523	0.003768310546875	1.131591796875
465	1.13525390625	298.855753245462	0.0038226318359375	1.134033203125
466	1.1376953125	298.8801532454	0.00387725830078125	1.13677978515625
467	1.14013671875	298.904553245339	0.00393035888671875	1.138916015625
468	1.142578125	298.928953245277	0.003983154296875	1.141357421875
469	1.14501953125	298.953353245215	0.004034423828125	1.1444091796875
470	1.1474609375	298.977753245154	0.00408477783203125	1.1468505859375
471	1.14990234375	299.002153245092	0.0041339111328125	1.148681640625
472	1.15234375	299.026553245031	0.00418182373046875	1.1517333984375
473	1.15478515625	299.050953244969	0.00422821044921875	1.15386962890625
474	1.1572265625	299.075353244907	0.0042730712890625	1.156005859375
475	1.15966796875	299.099753244846	0.00431671142578125	1.158447265625
476	1.162109375	299.124153244784	0.00435882568359375	1.160888671875
477	1.16455078125	299.148553244723	0.0043994140625	1.16363525390625
478	1.1669921875	299.172953244661	0.0044384765625	1.16607666015625
479	1.16943359375	299.197353244599	0.004476318359375	1.16851806640625
480	1.171875	299.221753244538	0.00451263427734375	1.17034912109375
481	1.17431640625	299.246153244476	0.00454742431640625	1.173095703125
482	1.1767578125	299.270553244414	0.00458160400390625	1.17523193359375
483	1.17919921875	299.294953244353	0.00461395263671875	1.17828369140625
484	1.181640625	299.319353244291	0.0046453857421875	1.18072509765625
485	1.18408203125	299.34375324423	0.0046759033203125	1.182861328125
486	1.1865234375	299.368153244168	0.00470550537109375	1.185302734375
487	1.18896484375	299.392553244106	0.00473388671875	1.18804931640625
488	1.19140625	299.416953244045	0.00476104736328125	1.190185546875
489	1.19384765625	299.441353243983	0.00478790283203125	1.19232177734375
490	1.1962890625	299.465753243922	0.0048138427734375	1.19476318359375
491	1.19873046875	299.49015324386	0.0048388671875	1.19720458984375
492	1.201171875	299.514553243798	0.00486297607421875	1.199951171875
493	1.19873046875	299.538953243737	0.0048388671875	1.197509765625
494	1.1962890625	299.563353243675	0.00481414794921875	1.19537353515625
495	1.19384765625	299.587753243614	0.00478851318359375	1.192626953125
496	1.19140625	299.612153243552	0.00476226806640625	1.1907958984375
497	1.18896484375	299.63655324349	0.00473480224609375	1.18804931640625
498	1.1865234375	299.660953243429	0.0047064208984375	1.185302734375
499	1.18408203125	299.685353243367	0.0046771240234375	1.18255615234375
500	1.181640625	299.709753243306	0.00464691162109375	1.18072509765625
501	1.17919921875	299.734153243244	0.00461578369140625	1.177978515625
502	1.1767578125	299.758553243182	0.00458282470703125	1.175537109375
503	1.17431640625	299.782953243121	0.00454925537109375	1.17340087890625
504	1.171875	299.807353243059	0.00451446533203125	1.170654296875
505	1.16943359375	299.831753242998	0.0044781494140625	1.168212890625
506	1.1669921875	299.856153242936	0.0044403076171875	1.16607666015625
507	1.16455078125	299.880553242874	0.0044012451171875	1.16363525390625
508	1.162109375	299.904953242813	0.00436065673828125	1.16119384765625
509	1.15966796875	299.929353242751	0.00431884765625	1.158447265625
510	1.1572265625	299.95375324269	0.00427520751953125	1.15631103515625
511	1.15478515625	299.978153242628	0.00422943115234375	1.1541748046875
512	1.15234375	300.002553242566	0.004183349609375	1.151123046875
513	1.14990234375	300.026953242505	0.0041351318359375	1.14959716796875
514	1.1474609375	300.051353242443	0.0040863037109375	1.14715576171875
515	1.14501953125	300.075753242382	0.0040350341796875	1.143798828125
516	1.142578125	300.10015324232	0.003983154296875	1.14166259765625
517	1.14013671875	300.124553242258	0.0039306640625	1.13922119140625
518	1.1376953125	300.148953242197	0.00387725830078125	1.136474609375
519	1.13525390625	300.173353242135	0.0038226318359375	1.13372802734375
520	1.1328125	300.197753242074	0.00376708984375	1.13128662109375
521	1.13037109375	300.222153242012	0.00371185302734375	1.129150390625
522	1.1279296875	300.24655324195	0.00365570068359375	1.12701416015625
523	1.12548828125	300.270953241889	0.00360015869140625	1.124267578125
524	1.123046875	300.295353241827	0.003543701171875	1.12152099609375
525	1.12060546875	300.319753241766	0.003487548828125	1.119384765625
526	1.1181640625	300.344153241704	0.003431396484375	1.11663818359375
527	1.11572265625	300.368553241642	0.00337554931640625	1.1151123046875
528	1.11328125	300.392953241581	0.0033203125	1.11236572265625
529	1.11083984375	300.417353241519	0.0032647705078125	1.10931396484375
530	1.1083984375	300.441753241457	0.00320953369140625	1.10748291015625
531	1.10595703125	300.466153241396	0.003155517578125	1.104736328125
532	1.103515625	300.490553241334	0.003101806640625	1.10198974609375
533	1.10107421875	300.514953241273	0.0030474853515625	1.10015869140625
534	1.0986328125	300.539353241211	0.00299407958984375	1.09710693359375
535	1.09619140625	300.563753241149	0.00294158935546875	1.09527587890625
536	1.09375	300.588153241088	0.0028887939453125	1.09283447265625
537	1.09130859375	300.612553241026	0.0028375244140625	1.09039306640625
538	1.0888671875	300.636953240965	0.00278533935546875	1.087646484375
539	1.08642578125	300.661353240903	0.0027349853515625	1.0858154296875
540	1.083984375	300.685753240841	0.00268463134765625	1.082763671875
541	1.08154296875	300.71015324078	0.00263580322265625	1.0809326171875
542	1.0791015625	300.734553240718	0.002586669921875	1.077880859375
543	1.07666015625	300.758953240657	0.0025372314453125	1.0760498046875
544	1.07421875	300.783353240595	0.0024896240234375	1.07330322265625
545	1.07177734375	300.807753240533	0.00244232177734375	1.070556640625
546	1.0693359375	300.832153240472	0.002396240234375	1.06842041015625
547	1.06689453125	300.85655324041	0.0023492431640625	1.0662841796875
548	1.064453125	300.880953240349	0.002303466796875	1.063232421875
549	1.06201171875	300.905353240287	0.00225860595703125	1.060791015625
550	1.0595703125	300.929753240225	0.00221405029296875	1.058349609375
551	1.05712890625	300.954153240164	0.0021710205078125	1.055908203125
552	1.0546875	300.978553240102	0.0021270751953125	1.053466796875
553	1.05224609375	301.002953240041	0.0020849609375	1.051025390625
554	1.0498046875	301.027353239979	0.00204315185546875	1.048583984375
555	1.04736328125	301.051753239917	0.0020025634765625	1.0467529296875
556	1.044921875	301.076153239856	0.00196197509765625	1.043701171875
557	1.04248046875	301.100553239794	0.00192138671875	1.04156494140625
558	1.0400390625	301.124953239733	0.00188262939453125	1.0394287109375
559	1.03759765625	301.149353239671	0.00184356689453125	1.03668212890625
560	1.03515625	301.173753239609	0.00180633544921875	1.03424072265625
561	1.03271484375	301.198153239548	0.00176849365234375	1.031494140625
562	1.0302734375	301.222553239486	0.00173248291015625	1.0296630859375
563	1.02783203125	301.246953239425	0.0016961669921875	1.02691650390625
564	1.025390625	301.271353239363	0.00166046142578125	1.024169921875
565	1.02294921875	301.295753239301	0.00162628173828125	1.0223388671875
566	1.0205078125	301.32015323924	0.001591796875	1.0198974609375
567	1.01806640625	301.344553239178	0.00155914306640625	1.01715087890625
568	1.015625	301.368953239117	0.0015252685546875	1.014404296875
569	1.01318359375	301.393353239055	0.001494140625	1.01226806640625
570	1.0107421875	301.417753238993	0.00146148681640625	1.00982666015625
571	1.00830078125	301.442153238932	0.0014306640625	1.007080078125
572	1.005859375	301.46655323887	0.001400146484375	1.00494384765625
573	1.00341796875	301.490953238809	0.0013702392578125	1.00311279296875
574	1.0009765625	301.515353238747	0.00134185791015625	1.0003662109375
575	0.99853515625	301.539753238685	0.00131256103515625	0.997314453125
576	0.99609375	301.564153238624	0.00128509521484375	0.9954833984375
577	0.99365234375	301.588553238562	0.00125701904296875	0.99273681640625
578	0.9912109375	301.6129532385	0.00123046875	0.99029541015625
579	0.98876953125	301.637353238439	0.0012042236328125	0.98846435546875
580	0.986328125	301.661753238377	0.00117828369140625	0.985107421875
581	0.98388671875	301.686153238316	0.0011541748046875	0.98297119140625
582	0.9814453125	301.710553238254	0.00112945556640625	0.98052978515625
583	0.97900390625	301.734953238192	0.0011065673828125	0.9783935546875
584	0.9765625	301.759353238131	0.00108245849609375	0.975341796875
585	0.97412109375	301.783753238069	0.0010595703125	0.972900390625
586	0.9716796875	301.808153238008	0.00103668212890625	0.97076416015625
587	0.96923828125	301.832553237946	0.00101531982421875	0.968017578125
588	0.966796875	301.856953237884	0.00099456787109375	0.9661865234375
589	0.96435546875	301.881353237823	0.00097320556640625	0.96343994140625
590	0.9619140625	301.905753237761	0.0009539794921875	0.96099853515625
591	0.95947265625	301.9301532377	0.00093353271484375	0.95855712890625
592	0.95703125	301.954553237638	0.00091522216796875	0.9564208984375
593	0.95458984375	301.978953237576	0.0008953857421875	0.9539794921875
594	0.9521484375	302.003353237515	0.00087738037109375	0.95062255859375
595	0.94970703125	302.027753237453	0.00085906982421875	0.948486328125
596	0.947265625	302.052153237392	0.00084197998046875	0.94696044921875
597	0.94482421875	302.07655323733	0.00082550048828125	0.94390869140625
598	0.9423828125	302.100953237268	0.000806884765625	0.941162109375
599	0.93994140625	302.125353237207	0.000792236328125	0.93902587890625
600	0.9375	302.149753237145	0.00077484130859375	0.93658447265625
601	0.93505859375	302.174153237084	0.0007611083984375	0.93414306640625
602	0.9326171875	302.198553237022	0.0007452392578125	0.931396484375
603	0.93017578125	302.22295323696	0.00072998046875	0.9295654296875
604	0.927734375	302.247353236899	0.00071685791015625	0.9271240234375
605	0.92529296875	302.271753236837	0.00070220947265625	0.92437744140625
606	0.9228515625	302.296153236776	0.00068939208984375	0.92193603515625
607	0.92041015625	302.320553236714	0.0006744384765625	0.9197998046875
608	0.91796875	302.344953236652	0.00066253662109375	0.916748046875
609	0.91552734375	302.369353236591	0.00064910888671875	0.91461181640625
610	0.9130859375	302.393753236529	0.00063690185546875	0.91217041015625
611	0.91064453125	302.418153236468	0.000625	0.9100341796875
612	0.908203125	302.442553236406	0.00061279296875	0.90728759765625
613	0.90576171875	302.466953236344	0.0006024169921875	0.904541015625
614	0.9033203125	302.491353236283	0.00059051513671875	0.90301513671875
615	0.90087890625	302.515753236221	0.00058013916015625	0.89996337890625
616	0.8984375	302.54015323616	0.00056884765625	0.897216796875
617	0.89599609375	302.564553236098	0.00055877685546875	0.8953857421875
618	0.8935546875	302.588953236036	0.00054779052734375	0.892333984375
619	0.89111328125	302.613353235975	0.0005377197265625	0.89019775390625
620	0.888671875	302.637753235913	0.0005279541015625	0.887451171875
621	0.88623046875	302.662153235852	0.000517578125	0.8856201171875
622	0.8837890625	302.68655323579	0.00050933837890625	0.88287353515625
623	0.88134765625	302.710953235728	0.00049957275390625	0.8807373046875
624	0.87890625	302.735353235667	0.0004913330078125	0.87860107421875
625	0.87646484375	302.759753235605	0.000482177734375	0.87554931640625
626	0.8740234375	302.784153235543	0.000473724365234375	0.8734130859375
627	0.87158203125	302.808553235482	0.0004658203125	0.870361328125
628	0.869140625	302.83295323542	0.00045660400390625	0.867919921875
629	0.86669921875	302.857353235359	0.000449371337890625	0.8660888671875
630	0.8642578125	302.881753235297	0.000440521240234375	0.86334228515625
631	0.86181640625	302.906153235235	0.000433929443359375	0.86090087890625
632	0.859375	302.930553235174	0.00042559814453125	0.8587646484375
633	0.85693359375	302.954953235112	0.000418548583984375	0.85601806640625
634	0.8544921875	302.979353235051	0.000411468505859375	0.85357666015625
635	0.85205078125	303.003753234989	0.000403533935546875	0.8514404296875
636	0.849609375	303.028153234927	0.000397735595703125	0.84869384765625
637	0.84716796875	303.052553234866	0.0003897705078125	0.84625244140625
638	0.8447265625	303.076953234804	0.000384246826171875	0.84381103515625
639	0.84228515625	303.101353234743	0.000376495361328125	0.841064453125
640	0.83984375	303.125753234681	0.0003699951171875	0.838623046875
641	0.83740234375	303.150153234619	0.000363494873046875	0.8367919921875
642	0.8349609375	303.174553234558	0.00035772705078125	0.833740234375
643	0.83251953125	303.198953234496	0.000352783203125	0.831298828125
644	0.830078125	303.223353234435	0.000345489501953125	0.828857421875
645	0.82763671875	303.247753234373	0.0003406982421875	0.82672119140625
646	0.8251953125	303.272153234311	0.0003336181640625	0.82427978515625
647	0.82275390625	303.29655323425	0.000329071044921875	0.8221435546875
648	0.8203125	303.320953234188	0.000322540283203125	0.81939697265625
649	0.81787109375	303.345353234127	0.000318023681640625	0.81695556640625
650	0.8154296875	303.369753234065	0.000312469482421875	0.81451416015625
651	0.81298828125	303.394153234003	0.0003074951171875	0.8123779296875
652	0.810546875	303.418553233942	0.000302764892578125	0.80963134765625
653	0.80810546875	303.44295323388	0.00029595947265625	0.806884765625
654	0.8056640625	303.467353233819	0.00029217529296875	0.804443359375
655	0.80322265625	303.491753233757	0.00028656005859375	0.8026123046875
656	0.80078125	303.516153233695	0.000282623291015625	0.79986572265625
657	0.79833984375	303.540553233634	0.000277008056640625	0.79742431640625
658	0.7958984375	303.564953233572	0.000272735595703125	0.79498291015625
659	0.79345703125	303.589353233511	0.000268402099609375	0.7928466796875
660	0.791015625	303.613753233449	0.000263641357421875	0.79010009765625
661	0.78857421875	303.638153233387	0.0002601318359375	0.7879638671875
662	0.7861328125	303.662553233326	0.000254608154296875	0.7855224609375
663	0.78369140625	303.686953233264	0.00025128173828125	0.78277587890625
664	0.78125	303.711353233203	0.00024652099609375	0.78033447265625
665	0.77880859375	303.735753233141	0.000242645263671875	0.77789306640625
666	0.7763671875	303.760153233079	0.000237945556640625	0.77545166015625
667	0.77392578125	303.784553233018	0.0002340087890625	0.7733154296875
668	0.771484375	303.808953232956	0.000230682373046875	0.770263671875
669	0.76904296875	303.833353232895	0.00022564697265625	0.7684326171875
670	0.7666015625	303.857753232833	0.0002230224609375	0.7659912109375
671	0.76416015625	303.882153232771	0.00021795654296875	0.76324462890625
672	0.76171875	303.90655323271	0.0002144775390625	0.7611083984375
673	0.75927734375	303.930953232648	0.0002109375	0.7586669921875
674	0.7568359375	303.955353232587	0.00020709228515625	0.75592041015625
675	0.75439453125	303.979753232525	0.000203948974609375	0.75347900390625
676	0.751953125	304.004153232463	0.00019970703125	0.75103759765625
677	0.74951171875	304.028553232402	0.00019744873046875	0.749267578125
678	0.7470703125	304.05295323234	0.0001927490234375	0.746795654296875
679	0.74462890625	304.077353232278	0.000190093994140625	0.744384765625
680	0.7421875	304.101753232217	0.0001861572265625	0.741912841796875
681	0.73974609375	304.126153232155	0.0001832275390625	0.739501953125
682	0.7373046875	304.150553232094	0.000180511474609375	0.737060546875
683	0.73486328125	304.174953232032	0.000176361083984375	0.734619140625
684	0.732421875	304.19935323197	0.000174072265625	0.732208251953125
685	0.72998046875	304.223753231909	0.00016961669921875	0.729766845703125
686	0.7275390625	304.248153231847	0.000167388916015625	0.727294921875
687	0.72509765625	304.272553231786	0.00016400146484375	0.724884033203125
688	0.72265625	304.296953231724	0.000161895751953125	0.722412109375
689	0.72021484375	304.321353231662	0.00015863037109375	0.720001220703125
690	0.7177734375	304.345753231601	0.000155242919921875	0.717559814453125
691	0.71533203125	304.370153231539	0.0001531982421875	0.715087890625
692	0.712890625	304.394553231478	0.000149444580078125	0.712677001953125
693	0.71044921875	304.418953231416	0.000147918701171875	0.710235595703125
694	0.7080078125	304.443353231354	0.000143798828125	0.707794189453125
695	0.70556640625	304.467753231293	0.000141510009765625	0.70538330078125
696	0.703125	304.492153231231	0.00013848876953125	0.702972412109375
697	0.70068359375	304.51655323117	0.0001361083984375	0.700531005859375
698	0.6982421875	304.540953231108	0.00013470458984375	0.698089599609375
699	0.69580078125	304.565353231046	0.000130767822265625	0.695556640625
700	0.693359375	304.589753230985	0.000129974365234375	0.69317626953125
701	0.69091796875	304.614153230923	0.00012615966796875	0.690765380859375
702	0.6884765625	304.638553230862	0.00012481689453125	0.68829345703125
703	0.68603515625	304.6629532308	0.000121978759765625	0.68585205078125
704	0.68359375	304.687353230738	0.00011932373046875	0.683441162109375
705	0.68115234375	304.711753230677	0.00011773681640625	0.6810302734375
706	0.6787109375	304.736153230615	0.0001146240234375	0.678558349609375
707	0.67626953125	304.760553230554	0.000113128662109375	0.6761474609375
708	0.673828125	304.784953230492	0.000109832763671875	0.673675537109375
709	0.67138671875	304.80935323043	0.000109405517578125	0.6712646484375
710	0.6689453125	304.833753230369	0.000105926513671875	0.6688232421875
711	0.66650390625	304.858153230307	0.000104766845703125	0.66632080078125
712	0.6640625	304.882553230246	0.000102569580078125	0.663970947265625
713	0.66162109375	304.906953230184	9.9884033203125E-05	0.661468505859375
714	0.6591796875	304.931353230122	9.9151611328125E-05	0.659027099609375
715	0.65673828125	304.955753230061	9.5489501953125E-05	0.656646728515625
716	0.654296875	304.980153229999	9.5001220703125E-05	0.6541748046875
717	0.65185546875	305.004553229938	9.1827392578125E-05	0.6517333984375
718	0.6494140625	305.028953229876	9.0576171875E-05	0.6490478515625
719	0.64697265625	305.053353229814	8.868408203125E-05	0.646697998046875
720	0.64453125	305.077753229753	8.6517333984375E-05	0.644287109375
721	0.64208984375	305.102153229691	8.563232421875E-05	0.641845703125
722	0.6396484375	305.12655322963	8.2427978515625E-05	0.63934326171875
723	0.63720703125	305.150953229568	8.2122802734375E-05	0.636993408203125
724	0.634765625	305.175353229506	7.9498291015625E-05	0.634521484375
725	0.63232421875	305.199753229445	7.9437255859375E-05	0.632080078125
726	0.6298828125	305.224153229383	7.6904296875E-05	0.62969970703125
727	0.62744140625	305.248553229321	7.550048828125E-05	0.627197265625
728	0.625	305.27295322926	7.4066162109375E-05	0.624786376953125
729	0.62255859375	305.297353229198	7.1380615234375E-05	0.622283935546875
730	0.6201171875	305.321753229137	7.1380615234375E-05	0.619903564453125
731	0.61767578125	305.346153229075	6.8603515625E-05	0.617462158203125
732	0.615234375	305.370553229013	6.8511962890625E-05	0.615020751953125
733	0.61279296875	305.394953228952	6.5643310546875E-05	0.612579345703125
734	0.6103515625	305.41935322889	6.500244140625E-05	0.61016845703125
735	0.60791015625	305.443753228829	6.34765625E-05	0.607666015625
736	0.60546875	305.468153228767	6.18896484375E-05	0.60528564453125
737	0.60302734375	305.492553228705	6.109619140625E-05	0.60284423828125
738	0.6005859375	305.516953228644	5.9051513671875E-05	0.600494384765625
739	0.59814453125	305.541353228582	5.8990478515625E-05	0.59796142578125
740	0.595703125	305.565753228521	5.609130859375E-05	0.595550537109375
741	0.59326171875	305.590153228459	5.5694580078125E-05	0.593109130859375
742	0.5908203125	305.614553228397	5.38330078125E-05	0.59063720703125
743	0.58837890625	305.638953228336	5.28564453125E-05	0.58819580078125
744	0.5859375	305.663353228274	5.2215576171875E-05	0.58575439453125
745	0.58349609375	305.687753228213	5.0201416015625E-05	0.58331298828125
746	0.5810546875	305.712153228151	4.9957275390625E-05	0.580902099609375
747	0.57861328125	305.736553228089	4.7320556640625E-05	0.578399658203125
748	0.576171875	305.760953228028	4.7320556640625E-05	0.5760498046875
749	0.57373046875	305.785353227966	4.5654296875E-05	0.5736083984375
750	0.5712890625	305.809753227905	4.50286865234375E-05	0.57110595703125
751	0.56884765625	305.834153227843	4.3804931640625E-05	0.568603515625
752	0.56640625	305.858553227781	4.21234130859375E-05	0.566253662109375
753	0.56396484375	305.88295322772	4.1986083984375E-05	0.563812255859375
754	0.5615234375	305.907353227658	3.97613525390625E-05	0.5614013671875
755	0.55908203125	305.931753227597	3.978271484375E-05	0.558929443359375
756	0.556640625	305.956153227535	3.77227783203125E-05	0.556549072265625
757	0.55419921875	305.980553227473	3.78082275390625E-05	0.5540771484375
758	0.5517578125	306.004953227412	3.6572265625E-05	0.5516357421875
759	0.54931640625	306.02935322735	3.5107421875E-05	0.5491943359375
760	0.546875	306.053753227289	3.40362548828125E-05	0.546722412109375
761	0.54443359375	306.078153227227	3.24066162109375E-05	0.544281005859375
762	0.5419921875	306.102553227165	3.2635498046875E-05	0.5418701171875
763	0.53955078125	306.126953227104	3.06060791015625E-05	0.5394287109375
764	0.537109375	306.151353227042	3.04656982421875E-05	0.5369873046875
765	0.53466796875	306.175753226981	2.894287109375E-05	0.534576416015625
766	0.5322265625	306.200153226919	2.896728515625E-05	0.532135009765625
767	0.52978515625	306.224553226857	2.80426025390625E-05	0.529693603515625
768	0.52734375	306.248953226796	2.6007080078125E-05	0.5272216796875
769	0.52490234375	306.273353226734	2.659912109375E-05	0.524749755859375
770	0.5224609375	306.297753226673	2.447509765625E-05	0.52239990234375
771	0.52001953125	306.322153226611	2.55462646484375E-05	0.519927978515625
772	0.517578125	306.346553226549	2.3443603515625E-05	0.51739501953125
773	0.51513671875	306.370953226488	2.31719970703125E-05	0.514984130859375
774	0.5126953125	306.395353226426	2.18658447265625E-05	0.51263427734375
775	0.51025390625	306.419753226364	2.076416015625E-05	0.510162353515625
776	0.5078125	306.444153226303	2.0947265625E-05	0.5076904296875
777	0.50537109375	306.468553226241	1.93572998046875E-05	0.505218505859375
778	0.5029296875	306.49295322618	2.00103759765625E-05	0.5028076171875
779	0.50048828125	306.517353226118	1.81304931640625E-05	0.5003662109375
780	0.498046875	306.541753226056	1.8597412109375E-05	0.497955322265625
781	0.49560546875	306.566153225995	1.75323486328125E-05	0.49554443359375
782	0.4931640625	306.590553225933	1.6644287109375E-05	0.49310302734375
783	0.49072265625	306.614953225872	1.58721923828125E-05	0.490631103515625
784	0.48828125	306.63935322581	1.41937255859375E-05	0.48822021484375
785	0.48583984375	306.663753225748	1.45843505859375E-05	0.48577880859375
786	0.4833984375	306.688153225687	1.23260498046875E-05	0.483306884765625
787	0.48095703125	306.712553225625	1.28936767578125E-05	0.4808349609375
788	0.478515625	306.736953225564	1.14410400390625E-05	0.47845458984375
789	0.47607421875	306.761353225502	1.15570068359375E-05	0.47601318359375
790	0.4736328125	306.78575322544	1.064453125E-05	0.4736328125
791	0.47119140625	306.810153225379	9.41162109375E-06	0.471160888671875
792	0.46875	306.834553225317	9.7015380859375E-06	0.468658447265625
793	0.46630859375	306.858953225256	8.3343505859375E-06	0.46624755859375
794	0.4638671875	306.883353225194	9.063720703125E-06	0.46380615234375
795	0.46142578125	306.907753225132	7.025146484375E-06	0.4613037109375
796	0.458984375	306.932153225071	7.2265625E-06	0.458831787109375
797	0.45654296875	306.956553225009	5.96923828125E-06	0.45635986328125
798	0.4541015625	306.980953224948	5.6121826171875E-06	0.4539794921875
799	0.45166015625	307.005353224886	5.499267578125E-06	0.4515380859375
800	0.44921875	307.029753224824	3.8299560546875E-06	0.44903564453125
801	0.44677734375	307.054153224763	4.608154296875E-06	0.4466552734375
802	0.4443359375	307.078553224701	3.05419921875E-06	0.4442138671875
803	0.44189453125	307.10295322464	3.9093017578125E-06	0.44183349609375
804	0.439453125	307.127353224578	2.26287841796875E-06	0.4393310546875
805	0.43701171875	307.151753224516	2.293701171875E-06	0.436981201171875
806	0.4345703125	307.176153224455	1.8035888671875E-06	0.4344482421875
807	0.43212890625	307.200553224393	8.6883544921875E-07	0.432098388671875
808	0.4296875	307.224953224332	1.45751953125E-06	0.42962646484375
809	0.42724609375	307.24935322427	-6.65283203125E-08	0.427154541015625
810	0.4248046875	307.273753224208	5.6427001953125E-07	0.4248046875
811	0.42236328125	307.298153224147	-8.0902099609375E-07	0.422271728515625
812	0.419921875	307.322553224085	-3.7139892578125E-07	0.41998291015625
813	0.41748046875	307.346953224024	-1.39251708984375E-06	0.417510986328125
814	0.4150390625	307.371353223962	-2.2772216796875E-06	0.4151611328125
815	0.41259765625	307.3957532239	-2.008056640625E-06	0.412628173828125
816	0.41015625	307.420153223839	-3.4002685546875E-06	0.410186767578125
817	0.40771484375	307.444553223777	-2.71942138671875E-06	0.407806396484375
818	0.4052734375	307.468953223716	-4.47998046875E-06	0.405303955078125
819	0.40283203125	307.493353223654	-3.9093017578125E-06	0.40289306640625
820	0.400390625	307.517753223592	-4.8309326171875E-06	0.400390625
821	0.39794921875	307.542153223531	-5.2642822265625E-06	0.398040771484375
822	0.3955078125	307.566553223469	-5.145263671875E-06	0.39556884765625
823	0.39306640625	307.590953223407	-6.4208984375E-06	0.393096923828125
824	0.390625	307.615353223346	-5.9051513671875E-06	0.390655517578125
825	0.38818359375	307.639753223284	-7.3272705078125E-06	0.38818359375
826	0.3857421875	307.664153223223	-6.2744140625E-06	0.385833740234375
827	0.38330078125	307.688553223161	-7.720947265625E-06	0.383331298828125
828	0.380859375	307.712953223099	-7.7423095703125E-06	0.380950927734375
829	0.37841796875	307.737353223038	-8.2763671875E-06	0.378448486328125
830	0.3759765625	307.761753222976	-9.222412109375E-06	0.376129150390625
831	0.37353515625	307.786153222915	-8.8287353515625E-06	0.3736572265625
832	0.37109375	307.810553222853	-1.06231689453125E-05	0.3712158203125
833	0.36865234375	307.834953222791	-9.3109130859375E-06	0.36871337890625
834	0.3662109375	307.85935322273	-1.0791015625E-05	0.36627197265625
835	0.36376953125	307.883753222668	-1.01776123046875E-05	0.363922119140625
836	0.361328125	307.908153222607	-1.10992431640625E-05	0.361480712890625
837	0.35888671875	307.932553222545	-1.1474609375E-05	0.35906982421875
838	0.3564453125	307.956953222483	-1.163330078125E-05	0.3565673828125
839	0.35400390625	307.981353222422	-1.28082275390625E-05	0.354156494140625
840	0.3515625	308.00575322236	-1.1749267578125E-05	0.35174560546875
841	0.34912109375	308.030153222299	-1.38397216796875E-05	0.3492431640625
842	0.3466796875	308.054553222237	-1.2945556640625E-05	0.346893310546875
843	0.34423828125	308.078953222175	-1.41204833984375E-05	0.344390869140625
844	0.341796875	308.103353222114	-1.41357421875E-05	0.34197998046875
845	0.33935546875	308.127753222052	-1.44622802734375E-05	0.33953857421875
846	0.3369140625	308.152153221991	-1.56341552734375E-05	0.337158203125
847	0.33447265625	308.176553221929	-1.46514892578125E-05	0.33465576171875
848	0.33203125	308.200953221867	-1.64031982421875E-05	0.332244873046875
849	0.32958984375	308.225353221806	-1.517333984375E-05	0.329742431640625
850	0.3271484375	308.249753221744	-1.6851806640625E-05	0.32733154296875
851	0.32470703125	308.274153221683	-1.64794921875E-05	0.324920654296875
852	0.322265625	308.298553221621	-1.68701171875E-05	0.322479248046875
853	0.31982421875	308.322953221559	-1.746826171875E-05	0.32000732421875
854	0.3173828125	308.347353221498	-1.737060546875E-05	0.31756591796875
855	0.31494140625	308.371753221436	-1.8878173828125E-05	0.315155029296875
856	0.3125	308.396153221375	-1.78375244140625E-05	0.31268310546875
857	0.31005859375	308.420553221313	-1.94091796875E-05	0.31024169921875
858	0.3076171875	308.444953221251	-1.85577392578125E-05	0.307891845703125
859	0.30517578125	308.46935322119	-1.9805908203125E-05	0.305419921875
860	0.302734375	308.493753221128	-1.9921875E-05	0.303009033203125
861	0.30029296875	308.518153221067	-2.00103759765625E-05	0.30059814453125
862	0.2978515625	308.542553221005	-2.09564208984375E-05	0.298126220703125
863	0.29541015625	308.566953220943	-2.021484375E-05	0.295684814453125
864	0.29296875	308.591353220882	-2.203369140625E-05	0.293243408203125
865	0.29052734375	308.61575322082	-2.0916748046875E-05	0.290802001953125
866	0.2880859375	308.640153220759	-2.23785400390625E-05	0.28839111328125
867	0.28564453125	308.664553220697	-2.20458984375E-05	0.285980224609375
868	0.283203125	308.688953220635	-2.2601318359375E-05	0.2835693359375
869	0.28076171875	308.713353220574	-2.31964111328125E-05	0.281097412109375
870	0.2783203125	308.737753220512	-2.24365234375E-05	0.2786865234375
871	0.27587890625	308.762153220451	-2.41058349609375E-05	0.276153564453125
872	0.2734375	308.786553220389	-2.298583984375E-05	0.27374267578125
873	0.27099609375	308.810953220327	-2.47802734375E-05	0.271240234375
874	0.2685546875	308.835353220266	-2.4005126953125E-05	0.268951416015625
875	0.26611328125	308.859753220204	-2.50213623046875E-05	0.26641845703125
876	0.263671875	308.884153220142	-2.51983642578125E-05	0.2640380859375
877	0.26123046875	308.908553220081	-2.51678466796875E-05	0.261627197265625
878	0.2587890625	308.932953220019	-2.66326904296875E-05	0.259185791015625
879	0.25634765625	308.957353219958	-2.57049560546875E-05	0.256744384765625
880	0.25390625	308.981753219896	-2.72186279296875E-05	0.254241943359375
881	0.25146484375	309.006153219834	-2.59857177734375E-05	0.251922607421875
882	0.2490234375	309.030553219773	-2.75848388671875E-05	0.249359130859375
883	0.24658203125	309.054953219711	-2.7374267578125E-05	0.246978759765625
884	0.244140625	309.07935321965	-2.77496337890625E-05	0.244476318359375
885	0.24169921875	309.103753219588	-2.85308837890625E-05	0.242218017578125
886	0.2392578125	309.128153219526	-2.794189453125E-05	0.239654541015625
887	0.23681640625	309.152553219465	-2.97882080078125E-05	0.23724365234375
888	0.234375	309.176953219403	-2.85858154296875E-05	0.23486328125
889	0.23193359375	309.201353219342	-3.00140380859375E-05	0.232391357421875
890	0.2294921875	309.22575321928	-2.94647216796875E-05	0.229461669921875
891	0.22705078125	309.250153219218	-3.02825927734375E-05	0.22711181640625
892	0.224609375	309.274553219157	-3.11187744140625E-05	0.22467041015625
893	0.22216796875	309.298953219095	-3.05694580078125E-05	0.2222900390625
894	0.2197265625	309.323353219034	-3.1842041015625E-05	0.21978759765625
895	0.21728515625	309.347753218972	-3.09722900390625E-05	0.21734619140625
896	0.21484375	309.37215321891	-3.2659912109375E-05	0.21490478515625
897	0.21240234375	309.396553218849	-3.19549560546875E-05	0.212432861328125
898	0.2099609375	309.420953218787	-3.287353515625E-05	0.209991455078125
899	0.20751953125	309.445353218726	-3.2904052734375E-05	0.20758056640625
900	0.205078125	309.469753218664	-3.31390380859375E-05	0.205108642578125
901	0.20263671875	309.494153218602	-3.4185791015625E-05	0.20269775390625
902	0.2001953125	309.518553218541	-3.3636474609375E-05	0.200286865234375
903	0.19775390625	309.542953218479	-3.5028076171875E-05	0.19781494140625
904	0.1953125	309.567353218418	-3.40850830078125E-05	0.195343017578125
905	0.19287109375	309.591753218356	-3.546142578125E-05	0.192901611328125
906	0.1904296875	309.616153218294	-3.50067138671875E-05	0.190460205078125
907	0.18798828125	309.640553218233	-3.56475830078125E-05	0.188018798828125
908	0.185546875	309.664953218171	-3.61663818359375E-05	0.1856689453125
909	0.18310546875	309.68935321811	-3.5723876953125E-05	0.183197021484375
910	0.1806640625	309.713753218048	-3.7249755859375E-05	0.18072509765625
911	0.17822265625	309.738153217986	-3.5980224609375E-05	0.1783447265625
912	0.17578125	309.762553217925	-3.7823486328125E-05	0.1759033203125
913	0.17333984375	309.786953217863	-3.6798095703125E-05	0.17340087890625
914	0.1708984375	309.811353217802	-3.807373046875E-05	0.171051025390625
915	0.16845703125	309.83575321774	-3.8397216796875E-05	0.168548583984375
916	0.166015625	309.860153217678	-3.85223388671875E-05	0.166107177734375
917	0.16357421875	309.884553217617	-3.9459228515625E-05	0.163665771484375
918	0.1611328125	309.908953217555	-3.8690185546875E-05	0.16119384765625
919	0.15869140625	309.933353217494	-4.056396484375E-05	0.158843994140625
920	0.15625	309.957753217432	-3.9324951171875E-05	0.15631103515625
921	0.15380859375	309.98215321737	-4.06280517578125E-05	0.1539306640625
922	0.1513671875	310.006553217309	-4.0313720703125E-05	0.15142822265625
923	0.14892578125	310.030953217247	-4.0869140625E-05	0.149017333984375
924	0.146484375	310.055353217185	-4.17022705078125E-05	0.1466064453125
925	0.14404296875	310.079753217124	-4.10400390625E-05	0.144134521484375
926	0.1416015625	310.104153217062	-4.24652099609375E-05	0.14166259765625
927	0.13916015625	310.128553217001	-4.13604736328125E-05	0.139251708984375
928	0.13671875	310.152953216939	-4.2987060546875E-05	0.136871337890625
929	0.13427734375	310.177353216877	-4.2376708984375E-05	0.134368896484375
930	0.1318359375	310.201753216816	-4.32403564453125E-05	0.131927490234375
931	0.12939453125	310.226153216754	-4.3377685546875E-05	0.1295166015625
932	0.126953125	310.250553216693	-4.3499755859375E-05	0.1270751953125
933	0.12451171875	310.274953216631	-4.476318359375E-05	0.1246337890625
934	0.1220703125	310.299353216569	-4.37957763671875E-05	0.122222900390625
935	0.11962890625	310.323753216508	-4.52880859375E-05	0.11968994140625
936	0.1171875	310.348153216446	-4.4183349609375E-05	0.1173095703125
937	0.11474609375	310.372553216385	-4.5697021484375E-05	0.1148681640625
938	0.1123046875	310.396953216323	-4.56451416015625E-05	0.112396240234375
939	0.10986328125	310.421353216261	-4.60205078125E-05	0.109954833984375
940	0.107421875	310.4457532162	-4.664306640625E-05	0.107513427734375
941	0.10498046875	310.470153216138	-4.6185302734375E-05	0.105072021484375
942	0.1025390625	310.494553216077	-4.796142578125E-05	0.102630615234375
943	0.10009765625	310.518953216015	-4.67864990234375E-05	0.1002197265625
944	0.09765625	310.543353215953	-4.814453125E-05	0.097808837890625
945	0.09521484375	310.567753215892	-4.7454833984375E-05	0.0953369140625
946	0.0927734375	310.59215321583	-4.84222412109375E-05	0.092926025390625
947	0.09033203125	310.616553215769	-4.888916015625E-05	0.090423583984375
948	0.087890625	310.640953215707	-4.8675537109375E-05	0.087921142578125
949	0.08544921875	310.665353215645	-5.0018310546875E-05	0.08551025390625
950	0.0830078125	310.689753215584	-4.89501953125E-05	0.08306884765625
951	0.08056640625	310.714153215522	-5.084228515625E-05	0.080596923828125
952	0.078125	310.738553215461	-4.9774169921875E-05	0.07818603515625
953	0.07568359375	310.762953215399	-5.096435546875E-05	0.07574462890625
954	0.0732421875	310.787353215337	-5.0750732421875E-05	0.073333740234375
955	0.07080078125	310.811753215276	-5.1177978515625E-05	0.07086181640625
956	0.068359375	310.836153215214	-5.224609375E-05	0.068450927734375
957	0.06591796875	310.860553215153	-5.1483154296875E-05	0.06597900390625
958	0.0634765625	310.884953215091	-5.3009033203125E-05	0.063507080078125
959	0.06103515625	310.909353215029	-5.181884765625E-05	0.061126708984375
960	0.05859375	310.933753214968	-5.352783203125E-05	0.058685302734375
961	0.05615234375	310.958153214906	-5.291748046875E-05	0.056243896484375
962	0.0537109375	310.982553214845	-5.3558349609375E-05	0.05377197265625
963	0.05126953125	311.006953214783	-5.4046630859375E-05	0.05133056640625
964	0.048828125	311.031353214721	-5.38330078125E-05	0.0489654541015625
965	0.04638671875	311.05575321466	-5.52978515625E-05	0.0465179443359375
966	0.0439453125	311.080153214598	-5.4168701171875E-05	0.0440826416015625
967	0.04150390625	311.104553214537	-5.572509765625E-05	0.0416351318359375
968	0.0390625	311.128953214475	-5.4656982421875E-05	0.039208984375
969	0.03662109375	311.153353214413	-5.596923828125E-05	0.0367767333984375
970	0.0341796875	311.177753214352	-5.5999755859375E-05	0.034320068359375
971	0.03173828125	311.20215321429	-5.6121826171875E-05	0.0318603515625
972	0.029296875	311.226553214228	-5.7037353515625E-05	0.0294647216796875
973	0.02685546875	311.250953214167	-5.6243896484375E-05	0.027008056640625
974	0.0244140625	311.275353214105	-5.8013916015625E-05	0.02457275390625
975	0.02197265625	311.299753214044	-5.682373046875E-05	0.02213134765625
976	0.01953125	311.324153213982	-5.8197021484375E-05	0.0197052001953125
977	0.01708984375	311.34855321392	-5.767822265625E-05	0.01724853515625
978	0.0146484375	311.372953213859	-5.8441162109375E-05	0.0148162841796875
979	0.01220703125	311.397353213797	-5.9051513671875E-05	0.012347412109375
980	0.009765625	311.421753213736	-5.859375E-05	0.00992431640624999
981	0.00732421875	311.446153213674	-5.9967041015625E-05	0.00748596191406251
982	0.0048828125	311.470553213612	-5.8807373046875E-05	0.0050537109375
983	0.00244140625	311.494953213551	-6.0638427734375E-05	0.00260009765624999
984	0	311.519353213489	-5.9722900390625E-05	0.000152587890625
985	0.00244140625	311.543753213428	-6.0028076171875E-05	0.00258483886718749
986	0.0048828125	311.568153213366	-5.9417724609375E-05	0.00504455566406251
987	0.00732421875	311.592553213304	-5.889892578125E-05	0.00749816894531249
988	0.009765625	311.616953213243	-5.9417724609375E-05	0.00991210937500001
989	0.01220703125	311.641353213181	-5.7830810546875E-05	0.0123565673828125
990	0.0146484375	311.66575321312	-5.877685546875E-05	0.0147979736328125
991	0.01708984375	311.690153213058	-5.694580078125E-05	0.01724853515625
992	0.01953125	311.714553212996	-5.7861328125E-05	0.01966552734375
993	0.02197265625	311.738953212935	-5.6915283203125E-05	0.022113037109375
