Index	Potential applied (V)	Time (s)	WE(1).Current (A)	WE(1).Potential (V)
1	0.00244140625	6.53393798350339	-5.5908203125E-05	0.002606201171875
2	0.0048828125	6.55833798344179	-5.6427001953125E-05	0.0050384521484375
3	0.00732421875	6.58273798338018	-5.4656982421875E-05	0.007489013671875
4	0.009765625	6.60713798331858	-5.5572509765625E-05	0.0099334716796875
5	0.01220703125	6.63153798325698	-5.419921875E-05	0.012347412109375
6	0.0146484375	6.65593798319537	-5.4168701171875E-05	0.0147796630859375
7	0.01708984375	6.68033798313377	-5.3680419921875E-05	0.017242431640625
8	0.01953125	6.70473798307216	-5.2825927734375E-05	0.0196929931640625
9	0.02197265625	6.72913798301056	-5.3466796875E-05	0.02210693359375
10	0.0244140625	6.75353798294896	-5.169677734375E-05	0.02457275390625
11	0.02685546875	6.77793798288735	-5.242919921875E-05	0.0270050048828125
12	0.029296875	6.80233798282575	-5.0811767578125E-05	0.02945556640625
13	0.03173828125	6.82673798276414	-5.1239013671875E-05	0.0318939208984375
14	0.0341796875	6.85113798270254	-5.0689697265625E-05	0.03433837890625
15	0.03662109375	6.87553798264094	-4.986572265625E-05	0.0367706298828125
16	0.0390625	6.89993798257933	-5.010986328125E-05	0.0392120361328125
17	0.04150390625	6.92433798251773	-4.84619140625E-05	0.0416595458984375
18	0.0439453125	6.94873798245612	-4.9468994140625E-05	0.0440948486328125
19	0.04638671875	6.97313798239452	-4.77813720703125E-05	0.04654541015625
20	0.048828125	6.99753798233291	-4.80072021484375E-05	0.048968505859375
21	0.05126953125	7.02193798227131	-4.7247314453125E-05	0.0513916015625
22	0.0537109375	7.04633798220971	-4.669189453125E-05	0.053863525390625
23	0.05615234375	7.0707379821481	-4.69879150390625E-05	0.0562744140625
24	0.05859375	7.0951379820865	-4.53765869140625E-05	0.05865478515625
25	0.06103515625	7.11953798202489	-4.60693359375E-05	0.061187744140625
26	0.0634765625	7.14393798196329	-4.4256591796875E-05	0.0635986328125
27	0.06591796875	7.16833798190169	-4.4915771484375E-05	0.0660400390625
28	0.068359375	7.19273798184008	-4.39849853515625E-05	0.0684814453125
29	0.07080078125	7.21713798177848	-4.34783935546875E-05	0.070892333984375
30	0.0732421875	7.24153798171687	-4.33349609375E-05	0.0733642578125
31	0.07568359375	7.26593798165527	-4.20318603515625E-05	0.07586669921875
32	0.078125	7.29033798159367	-4.28955078125E-05	0.07818603515625
33	0.08056640625	7.31473798153206	-4.10247802734375E-05	0.0806884765625
34	0.0830078125	7.33913798147046	-4.1448974609375E-05	0.083160400390625
35	0.08544921875	7.36353798140885	-4.0325927734375E-05	0.0855712890625
36	0.087890625	7.38793798134725	-4.010009765625E-05	0.0880126953125
37	0.09033203125	7.41233798128565	-4.0045166015625E-05	0.090484619140625
38	0.0927734375	7.43673798122404	-3.8726806640625E-05	0.0928955078125
39	0.09521484375	7.46113798116244	-3.93310546875E-05	0.095306396484375
40	0.09765625	7.48553798110083	-3.748779296875E-05	0.0977783203125
41	0.10009765625	7.50993798103923	-3.8226318359375E-05	0.100189208984375
42	0.1025390625	7.53433798097763	-3.69720458984375E-05	0.102630615234375
43	0.10498046875	7.55873798091602	-3.66668701171875E-05	0.1051025390625
44	0.107421875	7.58313798085442	-3.6322021484375E-05	0.107513427734375
45	0.10986328125	7.60753798079281	-3.524169921875E-05	0.109954833984375
46	0.1123046875	7.63193798073121	-3.58917236328125E-05	0.112396240234375
47	0.11474609375	7.6563379806696	-3.41033935546875E-05	0.1148681640625
48	0.1171875	7.680737980608	-3.465576171875E-05	0.117279052734375
49	0.11962890625	7.7051379805464	-3.3184814453125E-05	0.1197509765625
50	0.1220703125	7.72953798048479	-3.328857421875E-05	0.122161865234375
51	0.12451171875	7.75393798042319	-3.29254150390625E-05	0.124664306640625
52	0.126953125	7.77833798036158	-3.18511962890625E-05	0.127044677734375
53	0.12939453125	7.80273798029998	-3.21990966796875E-05	0.129425048828125
54	0.1318359375	7.82713798023838	-3.0438232421875E-05	0.131927490234375
55	0.13427734375	7.85153798017677	-3.133544921875E-05	0.13433837890625
56	0.13671875	7.87593798011517	-2.978515625E-05	0.1368408203125
57	0.13916015625	7.90033798005356	-2.9876708984375E-05	0.139251708984375
58	0.1416015625	7.92473797999196	-2.92327880859375E-05	0.141693115234375
59	0.14404296875	7.94913797993036	-2.85675048828125E-05	0.144134521484375
60	0.146484375	7.97353797986875	-2.8887939453125E-05	0.1466064453125
61	0.14892578125	7.99793797980715	-2.71087646484375E-05	0.149017333984375
62	0.1513671875	8.02233797974554	-2.763671875E-05	0.151458740234375
63	0.15380859375	8.04673797968394	-2.60345458984375E-05	0.1539306640625
64	0.15625	8.07113797962234	-2.64007568359375E-05	0.156341552734375
65	0.15869140625	8.09553797956073	-2.5714111328125E-05	0.158782958984375
66	0.1611328125	8.11993797949913	-2.5006103515625E-05	0.16119384765625
67	0.16357421875	8.14433797943752	-2.4969482421875E-05	0.16363525390625
68	0.166015625	8.16873797937592	-2.3443603515625E-05	0.16607666015625
69	0.16845703125	8.19313797931432	-2.421875E-05	0.168609619140625
70	0.1708984375	8.21753797925271	-2.235107421875E-05	0.170989990234375
71	0.17333984375	8.24193797919111	-2.26898193359375E-05	0.17340087890625
72	0.17578125	8.2663379791295	-2.17010498046875E-05	0.175872802734375
73	0.17822265625	8.2907379790679	-2.109375E-05	0.1783447265625
74	0.1806640625	8.31513797900629	-2.1160888671875E-05	0.180694580078125
75	0.18310546875	8.33953797894469	-1.98760986328125E-05	0.183135986328125
76	0.185546875	8.36393797888309	-2.02789306640625E-05	0.18560791015625
77	0.18798828125	8.38833797882148	-1.8524169921875E-05	0.188018798828125
78	0.1904296875	8.41273797875988	-1.89666748046875E-05	0.190460205078125
79	0.19287109375	8.43713797869827	-1.80633544921875E-05	0.192962646484375
80	0.1953125	8.46153797863667	-1.76055908203125E-05	0.195343017578125
81	0.19775390625	8.48593797857507	-1.74285888671875E-05	0.1978759765625
82	0.2001953125	8.51033797851346	-1.62506103515625E-05	0.200225830078125
83	0.20263671875	8.53473797845186	-1.69952392578125E-05	0.20263671875
84	0.205078125	8.55913797839025	-1.49810791015625E-05	0.205108642578125
85	0.20751953125	8.58353797832865	-1.55120849609375E-05	0.207550048828125
86	0.2099609375	8.60793797826705	-1.41937255859375E-05	0.21002197265625
87	0.21240234375	8.63233797820544	-1.4190673828125E-05	0.21246337890625
88	0.21484375	8.65673797814384	-1.38824462890625E-05	0.21490478515625
89	0.21728515625	8.68113797808223	-1.26373291015625E-05	0.21734619140625
90	0.2197265625	8.70553797802063	-1.29638671875E-05	0.2197265625
91	0.22216796875	8.72993797795903	-1.13525390625E-05	0.22222900390625
92	0.224609375	8.75433797789742	-1.20635986328125E-05	0.22467041015625
93	0.22705078125	8.77873797783582	-1.04705810546875E-05	0.22711181640625
94	0.2294921875	8.80313797777421	-1.0467529296875E-05	0.229461669921875
95	0.23193359375	8.82753797771261	-1.02081298828125E-05	0.231964111328125
96	0.234375	8.851937977651	-9.2071533203125E-06	0.234405517578125
97	0.23681640625	8.8763379775894	-9.552001953125E-06	0.23687744140625
98	0.2392578125	8.9007379775278	-7.684326171875E-06	0.239288330078125
99	0.24169921875	8.92513797746619	-8.294677734375E-06	0.24176025390625
100	0.244140625	8.94953797740459	-6.53076171875E-06	0.244171142578125
101	0.24658203125	8.97393797734298	-6.7901611328125E-06	0.2467041015625
102	0.2490234375	8.99833797728138	-6.439208984375E-06	0.249114990234375
103	0.25146484375	9.02273797721978	-5.4595947265625E-06	0.251495361328125
104	0.25390625	9.04713797715817	-5.5511474609375E-06	0.25396728515625
105	0.25634765625	9.07153797709657	-3.7872314453125E-06	0.256378173828125
106	0.2587890625	9.09593797703496	-4.87060546875E-06	0.258758544921875
107	0.26123046875	9.12033797697336	-2.8155517578125E-06	0.261322021484375
108	0.263671875	9.14473797691176	-3.24615478515625E-06	0.2637939453125
109	0.26611328125	9.16913797685015	-2.36602783203125E-06	0.26611328125
110	0.2685546875	9.19353797678855	-1.76788330078125E-06	0.2685546875
111	0.27099609375	9.21793797672694	-2.02667236328125E-06	0.271026611328125
112	0.2734375	9.24233797666534	-4.620361328125E-07	0.273468017578125
113	0.27587890625	9.26673797660374	-1.15203857421875E-06	0.27581787109375
114	0.2783203125	9.29113797654213	6.6497802734375E-07	0.2783203125
115	0.28076171875	9.31553797648053	1.9439697265625E-07	0.280731201171875
116	0.283203125	9.33993797641892	1.11053466796875E-06	0.28314208984375
117	0.28564453125	9.36433797635732	1.8927001953125E-06	0.28558349609375
118	0.2880859375	9.38873797629572	1.995849609375E-06	0.2880859375
119	0.29052734375	9.41313797623411	3.56048583984375E-06	0.29046630859375
120	0.29296875	9.43753797617251	2.64495849609375E-06	0.2928466796875
121	0.29541015625	9.4619379761109	4.541015625E-06	0.295379638671875
122	0.2978515625	9.4863379760493	4.3060302734375E-06	0.2977294921875
123	0.30029296875	9.51073797598769	5.682373046875E-06	0.300201416015625
124	0.302734375	9.53513797592609	5.7952880859375E-06	0.302581787109375
125	0.30517578125	9.55953797586449	6.0760498046875E-06	0.305023193359375
126	0.3076171875	9.58393797580288	7.550048828125E-06	0.307403564453125
127	0.31005859375	9.60833797574128	7.0953369140625E-06	0.30987548828125
128	0.3125	9.63273797567967	9.1400146484375E-06	0.3123779296875
129	0.31494140625	9.65713797561807	8.2244873046875E-06	0.314727783203125
130	0.3173828125	9.68153797555647	9.9578857421875E-06	0.31719970703125
131	0.31982421875	9.70593797549486	9.77783203125E-06	0.319671630859375
132	0.322265625	9.73033797543326	1.02691650390625E-05	0.32208251953125
133	0.32470703125	9.75473797537165	1.16912841796875E-05	0.324554443359375
134	0.3271484375	9.77913797531005	1.10748291015625E-05	0.326934814453125
135	0.32958984375	9.80353797524845	1.27960205078125E-05	0.329376220703125
136	0.33203125	9.82793797518684	1.25244140625E-05	0.331787109375
137	0.33447265625	9.85233797512524	1.40106201171875E-05	0.334259033203125
138	0.3369140625	9.87673797506363	1.397705078125E-05	0.336700439453125
139	0.33935546875	9.90113797500203	1.4056396484375E-05	0.339202880859375
140	0.341796875	9.92553797494043	1.5362548828125E-05	0.341522216796875
141	0.34423828125	9.94993797487882	1.49658203125E-05	0.34393310546875
142	0.3466796875	9.97433797481722	1.69708251953125E-05	0.346405029296875
143	0.34912109375	9.99873797475561	1.63482666015625E-05	0.3487548828125
144	0.3515625	10.023137974694	1.8359375E-05	0.35125732421875
145	0.35400390625	10.0475379746324	1.802978515625E-05	0.35357666015625
146	0.3564453125	10.0719379745708	1.86614990234375E-05	0.356170654296875
147	0.35888671875	10.0963379745092	1.9232177734375E-05	0.358551025390625
148	0.361328125	10.1207379744476	1.878662109375E-05	0.3609619140625
149	0.36376953125	10.145137974386	2.08251953125E-05	0.363372802734375
150	0.3662109375	10.1695379743244	2.05108642578125E-05	0.365753173828125
151	0.36865234375	10.1939379742628	2.23419189453125E-05	0.36822509765625
152	0.37109375	10.2183379742012	2.1832275390625E-05	0.370635986328125
153	0.37353515625	10.2427379741396	2.25006103515625E-05	0.373138427734375
154	0.3759765625	10.267137974078	2.335205078125E-05	0.37554931640625
155	0.37841796875	10.2915379740164	2.33642578125E-05	0.377960205078125
156	0.380859375	10.3159379739548	2.5048828125E-05	0.380401611328125
157	0.38330078125	10.3403379738932	2.415771484375E-05	0.382720947265625
158	0.3857421875	10.3647379738316	2.606201171875E-05	0.38519287109375
159	0.38818359375	10.3891379737699	2.58544921875E-05	0.3875732421875
160	0.390625	10.4135379737083	2.7349853515625E-05	0.390106201171875
161	0.39306640625	10.4379379736467	2.7484130859375E-05	0.392486572265625
162	0.3955078125	10.4623379735851	2.747802734375E-05	0.39495849609375
163	0.39794921875	10.4867379735235	2.938232421875E-05	0.39739990234375
164	0.400390625	10.5111379734619	2.88421630859375E-05	0.39971923828125
165	0.40283203125	10.5355379734003	3.06732177734375E-05	0.40216064453125
166	0.4052734375	10.5599379733387	3.0517578125E-05	0.405181884765625
167	0.40771484375	10.5843379732771	3.18389892578125E-05	0.407623291015625
168	0.41015625	10.6087379732155	3.26629638671875E-05	0.410064697265625
169	0.41259765625	10.6331379731539	3.27392578125E-05	0.41253662109375
170	0.4150390625	10.6575379730923	3.4326171875E-05	0.41497802734375
171	0.41748046875	10.6819379730307	3.3575439453125E-05	0.41748046875
172	0.419921875	10.7063379729691	3.5736083984375E-05	0.419830322265625
173	0.42236328125	10.7307379729075	3.4979248046875E-05	0.422332763671875
174	0.4248046875	10.7551379728459	3.64654541015625E-05	0.424713134765625
175	0.42724609375	10.7795379727843	3.66607666015625E-05	0.427154541015625
176	0.4296875	10.8039379727227	3.7066650390625E-05	0.429534912109375
177	0.43212890625	10.8283379726611	3.88458251953125E-05	0.432037353515625
178	0.4345703125	10.8527379725995	3.89190673828125E-05	0.434478759765625
179	0.43701171875	10.8771379725379	4.0777587890625E-05	0.43695068359375
180	0.439453125	10.9015379724763	4.04876708984375E-05	0.439300537109375
181	0.44189453125	10.9259379724147	4.17755126953125E-05	0.441802978515625
182	0.4443359375	10.9503379723531	4.229736328125E-05	0.44415283203125
183	0.44677734375	10.9747379722915	4.3145751953125E-05	0.4466552734375
184	0.44921875	10.9991379722298	4.41497802734375E-05	0.449127197265625
185	0.45166015625	11.0235379721682	4.3817138671875E-05	0.4515380859375
186	0.4541015625	11.0479379721066	4.59930419921875E-05	0.453948974609375
187	0.45654296875	11.072337972045	4.56085205078125E-05	0.4564208984375
188	0.458984375	11.0967379719834	4.7454833984375E-05	0.458892822265625
189	0.46142578125	11.1211379719218	4.779052734375E-05	0.4613037109375
190	0.4638671875	11.1455379718602	4.8583984375E-05	0.4637451171875
191	0.46630859375	11.1699379717986	4.96826171875E-05	0.4661865234375
192	0.46875	11.194337971737	5.0018310546875E-05	0.468597412109375
193	0.47119140625	11.2187379716754	5.2215576171875E-05	0.4710693359375
194	0.4736328125	11.2431379716138	5.16357421875E-05	0.473480224609375
195	0.47607421875	11.2675379715522	5.340576171875E-05	0.47589111328125
196	0.478515625	11.2919379714906	5.40771484375E-05	0.478363037109375
197	0.48095703125	11.316337971429	5.4931640625E-05	0.4808349609375
198	0.4833984375	11.3407379713674	5.60302734375E-05	0.48321533203125
199	0.48583984375	11.3651379713058	5.60302734375E-05	0.485687255859375
200	0.48828125	11.3895379712442	5.7830810546875E-05	0.488189697265625
201	0.49072265625	11.4139379711826	5.7891845703125E-05	0.49053955078125
202	0.4931640625	11.438337971121	5.9906005859375E-05	0.493011474609375
203	0.49560546875	11.4627379710594	5.9844970703125E-05	0.49542236328125
204	0.498046875	11.4871379709978	6.1553955078125E-05	0.497955322265625
205	0.50048828125	11.5115379709362	6.26220703125E-05	0.500274658203125
206	0.5029296875	11.5359379708746	6.329345703125E-05	0.502777099609375
207	0.50537109375	11.560337970813	6.48193359375E-05	0.505218505859375
208	0.5078125	11.5847379707513	6.4483642578125E-05	0.507568359375
209	0.51025390625	11.6091379706897	6.646728515625E-05	0.510040283203125
210	0.5126953125	11.6335379706281	6.7291259765625E-05	0.512542724609375
211	0.51513671875	11.6579379705665	6.8817138671875E-05	0.5150146484375
212	0.517578125	11.6823379705049	6.9549560546875E-05	0.5174560546875
213	0.52001953125	11.7067379704433	7.0098876953125E-05	0.51983642578125
214	0.5224609375	11.7311379703817	7.232666015625E-05	0.522308349609375
215	0.52490234375	11.7555379703201	7.220458984375E-05	0.524688720703125
216	0.52734375	11.7799379702585	7.4432373046875E-05	0.527099609375
217	0.52978515625	11.8043379701969	7.4005126953125E-05	0.52960205078125
218	0.5322265625	11.8287379701353	7.586669921875E-05	0.53204345703125
219	0.53466796875	11.8531379700737	7.6995849609375E-05	0.534454345703125
220	0.537109375	11.8775379700121	7.8033447265625E-05	0.536956787109375
221	0.53955078125	11.9019379699505	8.0230712890625E-05	0.53936767578125
222	0.5419921875	11.9263379698889	7.9803466796875E-05	0.541839599609375
223	0.54443359375	11.9507379698273	8.233642578125E-05	0.544219970703125
224	0.546875	11.9751379697657	8.282470703125E-05	0.54669189453125
225	0.54931640625	11.9995379697041	8.4930419921875E-05	0.549224853515625
226	0.5517578125	12.0239379696425	8.599853515625E-05	0.55157470703125
227	0.55419921875	12.0483379695809	8.70361328125E-05	0.553985595703125
228	0.556640625	12.0727379695193	8.9080810546875E-05	0.556396484375
229	0.55908203125	12.0971379694577	8.917236328125E-05	0.558868408203125
230	0.5615234375	12.1215379693961	9.2071533203125E-05	0.561279296875
231	0.56396484375	12.1459379693345	9.197998046875E-05	0.563720703125
232	0.56640625	12.1703379692729	9.4818115234375E-05	0.56610107421875
233	0.56884765625	12.1947379692112	9.613037109375E-05	0.568572998046875
234	0.5712890625	12.2191379691496	9.7503662109375E-05	0.571014404296875
235	0.57373046875	12.243537969088	9.9151611328125E-05	0.573516845703125
236	0.576171875	12.2679379690264	9.9761962890625E-05	0.575897216796875
237	0.57861328125	12.2923379689648	0.000102569580078125	0.578338623046875
238	0.5810546875	12.3167379689032	0.00010272216796875	0.580718994140625
239	0.58349609375	12.3411379688416	0.000105316162109375	0.583282470703125
240	0.5859375	12.36553796878	0.00010589599609375	0.585662841796875
241	0.58837890625	12.3899379687184	0.000108306884765625	0.588104248046875
242	0.5908203125	12.4143379686568	0.00010992431640625	0.59051513671875
243	0.59326171875	12.4387379685952	0.000110260009765625	0.59295654296875
244	0.595703125	12.4631379685336	0.000113037109375	0.595428466796875
245	0.59814453125	12.487537968472	0.00011376953125	0.5977783203125
246	0.6005859375	12.5119379684104	0.00011700439453125	0.600311279296875
247	0.60302734375	12.5363379683488	0.00011798095703125	0.602691650390625
248	0.60546875	12.5607379682872	0.000119873046875	0.605194091796875
249	0.60791015625	12.5851379682256	0.000121978759765625	0.60760498046875
250	0.6103515625	12.609537968164	0.000122650146484375	0.61004638671875
251	0.61279296875	12.6339379681024	0.000125213623046875	0.612396240234375
252	0.615234375	12.6583379680408	0.000125335693359375	0.614898681640625
253	0.61767578125	12.6827379679792	0.0001282958984375	0.617340087890625
254	0.6201171875	12.7071379679176	0.0001295166015625	0.619781494140625
255	0.62255859375	12.731537967856	0.000132476806640625	0.6221923828125
256	0.625	12.7559379677944	0.000133697509765625	0.624603271484375
257	0.62744140625	12.7803379677327	0.000135498046875	0.62713623046875
258	0.6298828125	12.8047379676711	0.000139190673828125	0.6295166015625
259	0.63232421875	12.8291379676095	0.000139739990234375	0.6319580078125
260	0.634765625	12.8535379675479	0.000143157958984375	0.634368896484375
261	0.63720703125	12.8779379674863	0.000144195556640625	0.636932373046875
262	0.6396484375	12.9023379674247	0.000146575927734375	0.6392822265625
263	0.64208984375	12.9267379673631	0.0001484375	0.641693115234375
264	0.64453125	12.9511379673015	0.000151153564453125	0.6441650390625
265	0.64697265625	12.9755379672399	0.00015362548828125	0.64654541015625
266	0.6494140625	12.9999379671783	0.000155975341796875	0.648956298828125
267	0.65185546875	13.0243379671167	0.00015966796875	0.6513671875
268	0.654296875	13.0487379670551	0.000159820556640625	0.65380859375
269	0.65673828125	13.0731379669935	0.00016265869140625	0.656219482421875
270	0.6591796875	13.0975379669319	0.000164642333984375	0.658660888671875
271	0.66162109375	13.1219379668703	0.00016717529296875	0.661163330078125
272	0.6640625	13.1463379668087	0.000170135498046875	0.66363525390625
273	0.66650390625	13.1707379667471	0.000172637939453125	0.666046142578125
274	0.6689453125	13.1951379666855	0.00017633056640625	0.668487548828125
275	0.67138671875	13.2195379666239	0.000178314208984375	0.6708984375
276	0.673828125	13.2439379665623	0.00018243408203125	0.673309326171875
277	0.67626953125	13.2683379665007	0.00018426513671875	0.675750732421875
278	0.6787109375	13.2927379664391	0.000187530517578125	0.678131103515625
279	0.68115234375	13.3171379663775	0.000190093994140625	0.68060302734375
280	0.68359375	13.3415379663159	0.000191802978515625	0.683074951171875
281	0.68603515625	13.3659379662543	0.000195587158203125	0.68548583984375
282	0.6884765625	13.3903379661926	0.000197662353515625	0.6878662109375
283	0.69091796875	13.414737966131	0.000201934814453125	0.69036865234375
284	0.693359375	13.4391379660694	0.000204559326171875	0.6927490234375
285	0.69580078125	13.4635379660078	0.00020758056640625	0.69525146484375
286	0.6982421875	13.4879379659462	0.00021124267578125	0.6976318359375
287	0.70068359375	13.5123379658846	0.00021307373046875	0.70001220703125
288	0.703125	13.536737965823	0.00021722412109375	0.702484130859375
289	0.70556640625	13.5611379657614	0.00021954345703125	0.70489501953125
290	0.7080078125	13.5855379656998	0.000224822998046875	0.707275390625
291	0.71044921875	13.6099379656382	0.000227264404296875	0.70977783203125
292	0.712890625	13.6343379655766	0.000231353759765625	0.712158203125
293	0.71533203125	13.658737965515	0.00023529052734375	0.714599609375
294	0.7177734375	13.6831379654534	0.00023883056640625	0.717041015625
295	0.72021484375	13.7075379653918	0.000243743896484375	0.719451904296875
296	0.72265625	13.7319379653302	0.000245849609375	0.721893310546875
297	0.72509765625	13.7563379652686	0.000251434326171875	0.724334716796875
298	0.7275390625	13.780737965207	0.000254547119140625	0.726776123046875
299	0.72998046875	13.8051379651454	0.000259246826171875	0.729156494140625
300	0.732421875	13.8295379650838	0.000262603759765625	0.73162841796875
301	0.73486328125	13.8539379650222	0.000266845703125	0.73406982421875
302	0.7373046875	13.8783379649606	0.000271728515625	0.736480712890625
303	0.73974609375	13.902737964899	0.000275115966796875	0.7388916015625
304	0.7421875	13.9271379648374	0.000281280517578125	0.741302490234375
305	0.74462890625	13.9515379647758	0.00028466796875	0.74371337890625
306	0.7470703125	13.9759379647141	0.00028924560546875	0.746185302734375
307	0.74951171875	14.0003379646525	0.000294097900390625	0.748565673828125
308	0.751953125	14.0247379645909	0.000299041748046875	0.751007080078125
309	0.75439453125	14.0491379645293	0.000303863525390625	0.7537841796875
310	0.7568359375	14.0735379644677	0.000307464599609375	0.75592041015625
311	0.75927734375	14.0979379644061	0.00031390380859375	0.7586669921875
312	0.76171875	14.1223379643445	0.0003172607421875	0.7611083984375
313	0.76416015625	14.1467379642829	0.000323272705078125	0.7635498046875
314	0.7666015625	14.1711379642213	0.000328125	0.7659912109375
315	0.76904296875	14.1955379641597	0.000332611083984375	0.7684326171875
316	0.771484375	14.2199379640981	0.00033734130859375	0.770263671875
317	0.77392578125	14.2443379640365	0.0003424072265625	0.77301025390625
318	0.7763671875	14.2687379639749	0.000347930908203125	0.7757568359375
319	0.77880859375	14.2931379639133	0.000352142333984375	0.77789306640625
320	0.78125	14.3175379638517	0.00035833740234375	0.7806396484375
321	0.78369140625	14.3419379637901	0.0003643798828125	0.7830810546875
322	0.7861328125	14.3663379637285	0.0003699951171875	0.7855224609375
323	0.78857421875	14.3907379636669	0.00037579345703125	0.7879638671875
324	0.791015625	14.4151379636053	0.000380767822265625	0.79010009765625
325	0.79345703125	14.4395379635437	0.00038775634765625	0.79254150390625
326	0.7958984375	14.4639379634821	0.0003929443359375	0.79498291015625
327	0.79833984375	14.4883379634205	0.0003997802734375	0.7977294921875
328	0.80078125	14.5127379633589	0.00040545654296875	0.79986572265625
329	0.80322265625	14.5371379632973	0.000412200927734375	0.80230712890625
330	0.8056640625	14.5615379632357	0.0004188232421875	0.80413818359375
331	0.80810546875	14.585937963174	0.000425323486328125	0.806884765625
332	0.810546875	14.6103379631124	0.000432159423828125	0.8099365234375
333	0.81298828125	14.6347379630508	0.000438201904296875	0.8123779296875
334	0.8154296875	14.6591379629892	0.00044537353515625	0.8148193359375
335	0.81787109375	14.6835379629276	0.000451019287109375	0.8172607421875
336	0.8203125	14.707937962866	0.000458740234375	0.8197021484375
337	0.82275390625	14.7323379628044	0.000465576171875	0.82183837890625
338	0.8251953125	14.7567379627428	0.0004715576171875	0.82427978515625
339	0.82763671875	14.7811379626812	0.000479949951171875	0.82672119140625
340	0.830078125	14.8055379626196	0.000487152099609375	0.828857421875
341	0.83251953125	14.829937962558	0.00049530029296875	0.8319091796875
342	0.8349609375	14.8543379624964	0.00050262451171875	0.8343505859375
343	0.83740234375	14.8787379624348	0.000511474609375	0.8367919921875
344	0.83984375	14.9031379623732	0.00051971435546875	0.83831787109375
345	0.84228515625	14.9275379623116	0.00052703857421875	0.8416748046875
346	0.8447265625	14.95193796225	0.0005352783203125	0.8441162109375
347	0.84716796875	14.9763379621884	0.00054290771484375	0.845947265625
348	0.849609375	15.0007379621268	0.0005523681640625	0.848388671875
349	0.85205078125	15.0251379620652	0.0005596923828125	0.85113525390625
350	0.8544921875	15.0495379620036	0.00056976318359375	0.85357666015625
351	0.85693359375	15.073937961942	0.0005780029296875	0.8563232421875
352	0.859375	15.0983379618804	0.000587158203125	0.8587646484375
353	0.86181640625	15.1227379618188	0.00059661865234375	0.86090087890625
354	0.8642578125	15.1471379617572	0.00060577392578125	0.8636474609375
355	0.86669921875	15.1715379616955	0.00061553955078125	0.86517333984375
356	0.869140625	15.1959379616339	0.00062408447265625	0.86822509765625
357	0.87158203125	15.2203379615723	0.0006341552734375	0.870361328125
358	0.8740234375	15.2447379615107	0.0006439208984375	0.87310791015625
359	0.87646484375	15.2691379614491	0.000654296875	0.87554931640625
360	0.87890625	15.2935379613875	0.0006640625	0.877685546875
361	0.88134765625	15.3179379613259	0.00067413330078125	0.88043212890625
362	0.8837890625	15.3423379612643	0.00068572998046875	0.88287353515625
363	0.88623046875	15.3667379612027	0.00069549560546875	0.885009765625
364	0.888671875	15.3911379611411	0.00070648193359375	0.8880615234375
365	0.89111328125	15.4155379610795	0.0007177734375	0.89080810546875
366	0.8935546875	15.4399379610179	0.00072906494140625	0.892333984375
367	0.89599609375	15.4643379609563	0.0007403564453125	0.8953857421875
368	0.8984375	15.4887379608947	0.0007513427734375	0.8978271484375
369	0.90087890625	15.5131379608331	0.00076263427734375	0.899658203125
370	0.9033203125	15.5375379607715	0.00077392578125	0.90240478515625
371	0.90576171875	15.5619379607099	0.00078704833984375	0.90545654296875
372	0.908203125	15.5863379606483	0.0008001708984375	0.9075927734375
373	0.91064453125	15.6107379605867	0.00081268310546875	0.90972900390625
374	0.9130859375	15.6351379605251	0.0008251953125	0.91217041015625
375	0.91552734375	15.6595379604635	0.00083953857421875	0.91461181640625
376	0.91796875	15.6839379604019	0.00085235595703125	0.91705322265625
377	0.92041015625	15.7083379603403	0.00086669921875	0.91949462890625
378	0.9228515625	15.7327379602787	0.0008819580078125	0.92254638671875
379	0.92529296875	15.7571379602171	0.00089569091796875	0.92437744140625
380	0.927734375	15.7815379601554	0.00091033935546875	0.92742919921875
381	0.93017578125	15.8059379600938	0.00092498779296875	0.928955078125
382	0.9326171875	15.8303379600322	0.00094024658203125	0.93170166015625
383	0.93505859375	15.8547379599706	0.000955810546875	0.93414306640625
384	0.9375	15.879137959909	0.00097137451171875	0.936279296875
385	0.93994140625	15.9035379598474	0.0009881591796875	0.93902587890625
386	0.9423828125	15.9279379597858	0.00100494384765625	0.94146728515625
387	0.94482421875	15.9523379597242	0.0010223388671875	0.94390869140625
388	0.947265625	15.9767379596626	0.00103851318359375	0.94635009765625
389	0.94970703125	16.001137959601	0.00105682373046875	0.94879150390625
390	0.9521484375	16.0255379595394	0.00107421875	0.95123291015625
391	0.95458984375	16.0499379594778	0.00109222412109375	0.95428466796875
392	0.95703125	16.0743379594162	0.0011114501953125	0.9564208984375
393	0.95947265625	16.0987379593546	0.00113037109375	0.9588623046875
394	0.9619140625	16.123137959293	0.00115081787109375	0.9613037109375
395	0.96435546875	16.1475379592314	0.001171875	0.963134765625
396	0.966796875	16.1719379591698	0.00119171142578125	0.965576171875
397	0.96923828125	16.1963379591082	0.0012127685546875	0.9686279296875
398	0.9716796875	16.2207379590466	0.00123260498046875	0.970458984375
399	0.97412109375	16.245137958985	0.0012548828125	0.9735107421875
400	0.9765625	16.2695379589234	0.00127655029296875	0.97564697265625
401	0.97900390625	16.2939379588618	0.00129974365234375	0.97808837890625
402	0.9814453125	16.3183379588002	0.0013226318359375	0.97991943359375
403	0.98388671875	16.3427379587386	0.0013470458984375	0.9832763671875
404	0.986328125	16.3671379586769	0.001370849609375	0.98541259765625
405	0.98876953125	16.3915379586153	0.00139556884765625	0.98846435546875
406	0.9912109375	16.4159379585537	0.0014208984375	0.99029541015625
407	0.99365234375	16.4403379584921	0.0014453125	0.99334716796875
408	0.99609375	16.4647379584305	0.00147125244140625	0.994873046875
409	0.99853515625	16.4891379583689	0.00149688720703125	0.997314453125
410	1.0009765625	16.5135379583073	0.0015252685546875	1.0003662109375
411	1.00341796875	16.5379379582457	0.001552734375	1.00250244140625
412	1.005859375	16.5623379581841	0.00157989501953125	1.00494384765625
413	1.00830078125	16.5867379581225	0.00160888671875	1.00738525390625
414	1.0107421875	16.6111379580609	0.0016387939453125	1.00982666015625
415	1.01318359375	16.6355379579993	0.0016693115234375	1.0125732421875
416	1.015625	16.6599379579377	0.00169891357421875	1.01409912109375
417	1.01806640625	16.6843379578761	0.0017303466796875	1.016845703125
418	1.0205078125	16.7087379578145	0.00176055908203125	1.01959228515625
419	1.02294921875	16.7331379577529	0.00179351806640625	1.021728515625
420	1.025390625	16.7575379576913	0.001826171875	1.0247802734375
421	1.02783203125	16.7819379576297	0.001859130859375	1.026611328125
422	1.0302734375	16.8063379575681	0.00189361572265625	1.029052734375
423	1.03271484375	16.8307379575065	0.0019268798828125	1.0321044921875
424	1.03515625	16.8551379574449	0.001962890625	1.033935546875
425	1.03759765625	16.8795379573833	0.00199798583984375	1.0369873046875
426	1.0400390625	16.9039379573217	0.00203460693359375	1.03912353515625
427	1.04248046875	16.9283379572601	0.00207183837890625	1.041259765625
428	1.044921875	16.9527379571985	0.002109375	1.04400634765625
429	1.04736328125	16.9771379571368	0.00214813232421875	1.046142578125
430	1.0498046875	17.0015379570752	0.00218658447265625	1.048583984375
431	1.05224609375	17.0259379570136	0.0022259521484375	1.051025390625
432	1.0546875	17.050337956952	0.00226593017578125	1.0540771484375
433	1.05712890625	17.0747379568904	0.00230712890625	1.0565185546875
434	1.0595703125	17.0991379568288	0.0023480224609375	1.0589599609375
435	1.06201171875	17.1235379567672	0.00238983154296875	1.06109619140625
436	1.064453125	17.1479379567056	0.002432861328125	1.0638427734375
437	1.06689453125	17.172337956644	0.0024755859375	1.065673828125
438	1.0693359375	17.1967379565824	0.00251983642578125	1.068115234375
439	1.07177734375	17.2211379565208	0.00256378173828125	1.07086181640625
440	1.07421875	17.2455379564592	0.0026092529296875	1.07330322265625
441	1.07666015625	17.2699379563976	0.00265472412109375	1.07635498046875
442	1.0791015625	17.294337956336	0.002701416015625	1.07818603515625
443	1.08154296875	17.3187379562744	0.00274810791015625	1.08062744140625
444	1.083984375	17.3431379562128	0.00279449462890625	1.0833740234375
445	1.08642578125	17.3675379561512	0.00284332275390625	1.085205078125
446	1.0888671875	17.3919379560896	0.00289154052734375	1.08734130859375
447	1.09130859375	17.416337956028	0.0029412841796875	1.0906982421875
448	1.09375	17.4407379559664	0.00299072265625	1.0931396484375
449	1.09619140625	17.4651379559048	0.00304107666015625	1.0955810546875
450	1.0986328125	17.4895379558432	0.00309173583984375	1.097412109375
451	1.10107421875	17.5139379557816	0.0031427001953125	1.099853515625
452	1.103515625	17.53833795572	0.003194580078125	1.10260009765625
453	1.10595703125	17.5627379556583	0.00324615478515625	1.104736328125
454	1.1083984375	17.5871379555967	0.00329925537109375	1.107177734375
455	1.11083984375	17.6115379555351	0.00335235595703125	1.10992431640625
456	1.11328125	17.6359379554735	0.00340576171875	1.11175537109375
457	1.11572265625	17.6603379554119	0.00345916748046875	1.11480712890625
458	1.1181640625	17.6847379553503	0.00351318359375	1.11663818359375
459	1.12060546875	17.7091379552887	0.00356719970703125	1.11968994140625
460	1.123046875	17.7335379552271	0.00362091064453125	1.12213134765625
461	1.12548828125	17.7579379551655	0.00367523193359375	1.12457275390625
462	1.1279296875	17.7823379551039	0.00372894287109375	1.126708984375
463	1.13037109375	17.8067379550423	0.00378204345703125	1.129150390625
464	1.1328125	17.8311379549807	0.00383544921875	1.13189697265625
465	1.13525390625	17.8555379549191	0.00388824462890625	1.134033203125
466	1.1376953125	17.8799379548575	0.0039404296875	1.13677978515625
467	1.14013671875	17.9043379547959	0.003990478515625	1.138916015625
468	1.142578125	17.9287379547343	0.0040411376953125	1.1419677734375
469	1.14501953125	17.9531379546727	0.00409027099609375	1.1444091796875
470	1.1474609375	17.9775379546111	0.00413848876953125	1.14654541015625
471	1.14990234375	18.0019379545495	0.0041845703125	1.14898681640625
472	1.15234375	18.0263379544879	0.004229736328125	1.151123046875
473	1.15478515625	18.0507379544263	0.0042742919921875	1.153564453125
474	1.1572265625	18.0751379543647	0.00431671142578125	1.15631103515625
475	1.15966796875	18.0995379543031	0.00435821533203125	1.15875244140625
476	1.162109375	18.1239379542415	0.0043975830078125	1.16119384765625
477	1.16455078125	18.1483379541799	0.0044354248046875	1.16363525390625
478	1.1669921875	18.1727379541182	0.00447265625	1.16607666015625
479	1.16943359375	18.1971379540566	0.0045086669921875	1.168212890625
480	1.171875	18.221537953995	0.00454315185546875	1.170654296875
481	1.17431640625	18.2459379539334	0.00457611083984375	1.17340087890625
482	1.1767578125	18.2703379538718	0.00460845947265625	1.1761474609375
483	1.17919921875	18.2947379538102	0.004639892578125	1.17828369140625
484	1.181640625	18.3191379537486	0.00467010498046875	1.180419921875
485	1.18408203125	18.343537953687	0.0046990966796875	1.182861328125
486	1.1865234375	18.3679379536254	0.00472686767578125	1.18560791015625
487	1.18896484375	18.3923379535638	0.00475433349609375	1.1883544921875
488	1.19140625	18.4167379535022	0.00478057861328125	1.18988037109375
489	1.19384765625	18.4411379534406	0.0048065185546875	1.192626953125
490	1.1962890625	18.465537953379	0.0048309326171875	1.195068359375
491	1.19873046875	18.4899379533174	0.0048553466796875	1.1981201171875
492	1.201171875	18.5143379532558	0.00487884521484375	1.2005615234375
493	1.19873046875	18.5387379531942	0.0048553466796875	1.197509765625
494	1.1962890625	18.5631379531326	0.0048309326171875	1.19537353515625
495	1.19384765625	18.587537953071	0.004805908203125	1.19293212890625
496	1.19140625	18.6119379530094	0.00477996826171875	1.190185546875
497	1.18896484375	18.6363379529478	0.00475311279296875	1.187744140625
498	1.1865234375	18.6607379528862	0.0047259521484375	1.18499755859375
499	1.18408203125	18.6851379528246	0.00469757080078125	1.18316650390625
500	1.181640625	18.709537952763	0.00466827392578125	1.1810302734375
501	1.17919921875	18.7339379527014	0.0046380615234375	1.177978515625
502	1.1767578125	18.7583379526397	0.00460662841796875	1.1761474609375
503	1.17431640625	18.7827379525781	0.004573974609375	1.17340087890625
504	1.171875	18.8071379525165	0.004539794921875	1.170654296875
505	1.16943359375	18.8315379524549	0.0045050048828125	1.16851806640625
506	1.1669921875	18.8559379523933	0.0044683837890625	1.165771484375
507	1.16455078125	18.8803379523317	0.00443084716796875	1.1639404296875
508	1.162109375	18.9047379522701	0.00439208984375	1.160888671875
509	1.15966796875	18.9291379522085	0.00435150146484375	1.158447265625
510	1.1572265625	18.9535379521469	0.0043096923828125	1.156005859375
511	1.15478515625	18.9779379520853	0.00426605224609375	1.15386962890625
512	1.15234375	19.0023379520237	0.0042218017578125	1.1517333984375
513	1.14990234375	19.0267379519621	0.00417510986328125	1.148681640625
514	1.1474609375	19.0511379519005	0.004127197265625	1.1468505859375
515	1.14501953125	19.0755379518389	0.00407806396484375	1.143798828125
516	1.142578125	19.0999379517773	0.0040277099609375	1.14105224609375
517	1.14013671875	19.1243379517157	0.00397705078125	1.13922119140625
518	1.1376953125	19.1487379516541	0.00392425537109375	1.136474609375
519	1.13525390625	19.1731379515925	0.00387115478515625	1.1346435546875
520	1.1328125	19.1975379515309	0.00381683349609375	1.131591796875
521	1.13037109375	19.2219379514693	0.0037628173828125	1.12945556640625
522	1.1279296875	19.2463379514077	0.00370758056640625	1.126708984375
523	1.12548828125	19.2707379513461	0.00365203857421875	1.124267578125
524	1.123046875	19.2951379512845	0.00359710693359375	1.12213134765625
525	1.12060546875	19.3195379512229	0.0035418701171875	1.119384765625
526	1.1181640625	19.3439379511613	0.00348724365234375	1.1175537109375
527	1.11572265625	19.3683379510996	0.003431396484375	1.114501953125
528	1.11328125	19.392737951038	0.00337646484375	1.1126708984375
529	1.11083984375	19.4171379509764	0.00332183837890625	1.10992431640625
530	1.1083984375	19.4415379509148	0.003267822265625	1.107177734375
531	1.10595703125	19.4659379508532	0.00321380615234375	1.104736328125
532	1.103515625	19.4903379507916	0.00315948486328125	1.10260009765625
533	1.10107421875	19.51473795073	0.00310638427734375	1.10015869140625
534	1.0986328125	19.5391379506684	0.00305328369140625	1.09771728515625
535	1.09619140625	19.5635379506068	0.0030010986328125	1.094970703125
536	1.09375	19.5879379505452	0.00294891357421875	1.09283447265625
537	1.09130859375	19.6123379504836	0.00289764404296875	1.090087890625
538	1.0888671875	19.636737950422	0.00284637451171875	1.087646484375
539	1.08642578125	19.6611379503604	0.0027960205078125	1.08551025390625
540	1.083984375	19.6855379502988	0.00274658203125	1.08245849609375
541	1.08154296875	19.7099379502372	0.00269683837890625	1.08062744140625
542	1.0791015625	19.7343379501756	0.00264892578125	1.0784912109375
543	1.07666015625	19.758737950114	0.00260040283203125	1.075439453125
544	1.07421875	19.7831379500524	0.00255279541015625	1.072998046875
545	1.07177734375	19.8075379499908	0.002506103515625	1.07086181640625
546	1.0693359375	19.8319379499292	0.00245941162109375	1.06781005859375
547	1.06689453125	19.8563379498676	0.0024139404296875	1.0662841796875
548	1.064453125	19.880737949806	0.0023687744140625	1.063232421875
549	1.06201171875	19.9051379497444	0.00232452392578125	1.060791015625
550	1.0595703125	19.9295379496828	0.0022802734375	1.05865478515625
551	1.05712890625	19.9539379496211	0.0022369384765625	1.05621337890625
552	1.0546875	19.9783379495595	0.0021942138671875	1.05377197265625
553	1.05224609375	20.0027379494979	0.00215179443359375	1.05133056640625
554	1.0498046875	20.0271379494363	0.002110595703125	1.0491943359375
555	1.04736328125	20.0515379493747	0.002069091796875	1.04644775390625
556	1.044921875	20.0759379493131	0.00202911376953125	1.04461669921875
557	1.04248046875	20.1003379492515	0.0019891357421875	1.0418701171875
558	1.0400390625	20.1247379491899	0.00195068359375	1.038818359375
559	1.03759765625	20.1491379491283	0.0019122314453125	1.03668212890625
560	1.03515625	20.1735379490667	0.0018743896484375	1.03424072265625
561	1.03271484375	20.1979379490051	0.00183746337890625	1.0321044921875
562	1.0302734375	20.2223379489435	0.00180084228515625	1.02996826171875
563	1.02783203125	20.2467379488819	0.00176544189453125	1.026611328125
564	1.025390625	20.2711379488203	0.00173004150390625	1.0247802734375
565	1.02294921875	20.2955379487587	0.00169586181640625	1.02203369140625
566	1.0205078125	20.3199379486971	0.00166229248046875	1.01959228515625
567	1.01806640625	20.3443379486355	0.00162872314453125	1.0174560546875
568	1.015625	20.3687379485739	0.00159576416015625	1.014404296875
569	1.01318359375	20.3931379485123	0.00156280517578125	1.011962890625
570	1.0107421875	20.4175379484507	0.00153228759765625	1.0101318359375
571	1.00830078125	20.4419379483891	0.001500244140625	1.0076904296875
572	1.005859375	20.4663379483275	0.00147125244140625	1.00494384765625
573	1.00341796875	20.4907379482659	0.00144073486328125	1.0028076171875
574	1.0009765625	20.5151379482043	0.001412353515625	0.999755859375
575	0.99853515625	20.5395379481427	0.00138336181640625	0.99761962890625
576	0.99609375	20.563937948081	0.00135528564453125	0.994873046875
577	0.99365234375	20.5883379480194	0.001328125	0.99273681640625
578	0.9912109375	20.6127379479578	0.00130096435546875	0.99029541015625
579	0.98876953125	20.6371379478962	0.001275634765625	0.98785400390625
580	0.986328125	20.6615379478346	0.00124908447265625	0.98541259765625
581	0.98388671875	20.685937947773	0.001224365234375	0.98297119140625
582	0.9814453125	20.7103379477114	0.00119964599609375	0.98052978515625
583	0.97900390625	20.7347379476498	0.00117523193359375	0.9783935546875
584	0.9765625	20.7591379475882	0.00115234375	0.9759521484375
585	0.97412109375	20.7835379475266	0.00112823486328125	0.97320556640625
586	0.9716796875	20.807937947465	0.00110687255859375	0.97137451171875
587	0.96923828125	20.8323379474034	0.00108367919921875	0.96832275390625
588	0.966796875	20.8567379473418	0.00106292724609375	0.9661865234375
589	0.96435546875	20.8811379472802	0.00104278564453125	0.963134765625
590	0.9619140625	20.9055379472186	0.001021728515625	0.9613037109375
591	0.95947265625	20.929937947157	0.00100250244140625	0.95855712890625
592	0.95703125	20.9543379470954	0.0009820556640625	0.955810546875
593	0.95458984375	20.9787379470338	0.00096343994140625	0.95428466796875
594	0.9521484375	21.0031379469722	0.00094482421875	0.950927734375
595	0.94970703125	21.0275379469106	0.00092742919921875	0.948486328125
596	0.947265625	21.051937946849	0.000909423828125	0.94635009765625
597	0.94482421875	21.0763379467874	0.00089202880859375	0.94390869140625
598	0.9423828125	21.1007379467258	0.00087554931640625	0.94207763671875
599	0.93994140625	21.1251379466642	0.00085845947265625	0.938720703125
600	0.9375	21.1495379466025	0.0008428955078125	0.936279296875
601	0.93505859375	21.1739379465409	0.00082611083984375	0.93414306640625
602	0.9326171875	21.1983379464793	0.00081146240234375	0.931396484375
603	0.93017578125	21.2227379464177	0.00079620361328125	0.928955078125
604	0.927734375	21.2471379463561	0.00078155517578125	0.92681884765625
605	0.92529296875	21.2715379462945	0.0007672119140625	0.9246826171875
606	0.9228515625	21.2959379462329	0.0007525634765625	0.92193603515625
607	0.92041015625	21.3203379461713	0.00073944091796875	0.91949462890625
608	0.91796875	21.3447379461097	0.0007257080078125	0.9173583984375
609	0.91552734375	21.3691379460481	0.000714111328125	0.914306640625
610	0.9130859375	21.3935379459865	0.00070098876953125	0.91278076171875
611	0.91064453125	21.4179379459249	0.0006884765625	0.9100341796875
612	0.908203125	21.4423379458633	0.00067657470703125	0.90728759765625
613	0.90576171875	21.4667379458017	0.00066375732421875	0.90545654296875
614	0.9033203125	21.4911379457401	0.00065338134765625	0.902099609375
615	0.90087890625	21.5155379456785	0.000640869140625	0.89996337890625
616	0.8984375	21.5399379456169	0.00063018798828125	0.897216796875
617	0.89599609375	21.5643379455553	0.0006195068359375	0.894775390625
618	0.8935546875	21.5887379454937	0.00060943603515625	0.8917236328125
619	0.89111328125	21.6131379454321	0.0005987548828125	0.889892578125
620	0.888671875	21.6375379453705	0.00058837890625	0.88775634765625
621	0.88623046875	21.6619379453089	0.0005792236328125	0.885009765625
622	0.8837890625	21.6863379452473	0.00056854248046875	0.88287353515625
623	0.88134765625	21.7107379451857	0.00056060791015625	0.88043212890625
624	0.87890625	21.7351379451241	0.00055023193359375	0.87799072265625
625	0.87646484375	21.7595379450624	0.00054168701171875	0.87554931640625
626	0.8740234375	21.7839379450008	0.0005322265625	0.87310791015625
627	0.87158203125	21.8083379449392	0.000523681640625	0.8709716796875
628	0.869140625	21.8327379448776	0.00051605224609375	0.867919921875
629	0.86669921875	21.857137944816	0.000506591796875	0.865478515625
630	0.8642578125	21.8815379447544	0.000498504638671875	0.8636474609375
631	0.86181640625	21.9059379446928	0.000489715576171875	0.86090087890625
632	0.859375	21.9303379446312	0.00048236083984375	0.85845947265625
633	0.85693359375	21.9547379445696	0.0004737548828125	0.8563232421875
634	0.8544921875	21.979137944508	0.00046624755859375	0.8538818359375
635	0.85205078125	22.0035379444464	0.000459136962890625	0.85174560546875
636	0.849609375	22.0279379443848	0.0004517822265625	0.8489990234375
637	0.84716796875	22.0523379443232	0.00044573974609375	0.84625244140625
638	0.8447265625	22.0767379442616	0.000438018798828125	0.8441162109375
639	0.84228515625	22.1011379442	0.000432037353515625	0.84136962890625
640	0.83984375	22.1255379441384	0.000424957275390625	0.83892822265625
641	0.83740234375	22.1499379440768	0.000418060302734375	0.8367919921875
642	0.8349609375	22.1743379440152	0.000411376953125	0.83404541015625
643	0.83251953125	22.1987379439536	0.0004044189453125	0.831298828125
644	0.830078125	22.223137943892	0.000399200439453125	0.8294677734375
645	0.82763671875	22.2475379438304	0.000392669677734375	0.8270263671875
646	0.8251953125	22.2719379437688	0.000387359619140625	0.82427978515625
647	0.82275390625	22.2963379437072	0.000380340576171875	0.8221435546875
648	0.8203125	22.3207379436456	0.000375457763671875	0.8197021484375
649	0.81787109375	22.3451379435839	0.000369873046875	0.81695556640625
650	0.8154296875	22.3695379435223	0.000363739013671875	0.81451416015625
651	0.81298828125	22.3939379434607	0.000358673095703125	0.81207275390625
652	0.810546875	22.4183379433991	0.00035223388671875	0.809326171875
653	0.80810546875	22.4427379433375	0.000347564697265625	0.8074951171875
654	0.8056640625	22.4671379432759	0.000341583251953125	0.8050537109375
655	0.80322265625	22.4915379432143	0.000337005615234375	0.80230712890625
656	0.80078125	22.5159379431527	0.000331573486328125	0.79986572265625
657	0.79833984375	22.5403379430911	0.000326568603515625	0.7977294921875
658	0.7958984375	22.5647379430295	0.000322021484375	0.794677734375
659	0.79345703125	22.5891379429679	0.000316436767578125	0.792236328125
660	0.791015625	22.6135379429063	0.000312957763671875	0.789794921875
661	0.78857421875	22.6379379428447	0.000307586669921875	0.78765869140625
662	0.7861328125	22.6623379427831	0.00030328369140625	0.784912109375
663	0.78369140625	22.6867379427215	0.000298828125	0.78277587890625
664	0.78125	22.7111379426599	0.00029443359375	0.7806396484375
665	0.77880859375	22.7355379425983	0.0002904052734375	0.777587890625
666	0.7763671875	22.7599379425367	0.000284912109375	0.775146484375
667	0.77392578125	22.7843379424751	0.000281707763671875	0.77301025390625
668	0.771484375	22.8087379424135	0.00027667236328125	0.7708740234375
669	0.76904296875	22.8331379423519	0.000273162841796875	0.76873779296875
670	0.7666015625	22.8575379422903	0.000268096923828125	0.7659912109375
671	0.76416015625	22.8819379422287	0.000263641357421875	0.76324462890625
672	0.76171875	22.9063379421671	0.000260162353515625	0.76141357421875
673	0.75927734375	22.9307379421055	0.00025537109375	0.7586669921875
674	0.7568359375	22.9551379420438	0.000252471923828125	0.75653076171875
675	0.75439453125	22.9795379419822	0.000247802734375	0.75347900390625
676	0.751953125	23.0039379419206	0.00024542236328125	0.75164794921875
677	0.74951171875	23.028337941859	0.00024078369140625	0.749237060546875
678	0.7470703125	23.0527379417974	0.000237762451171875	0.746795654296875
679	0.74462890625	23.0771379417358	0.0002340087890625	0.744415283203125
680	0.7421875	23.1015379416742	0.000230194091796875	0.741943359375
681	0.73974609375	23.1259379416126	0.000227386474609375	0.739471435546875
682	0.7373046875	23.150337941551	0.000223663330078125	0.737091064453125
683	0.73486328125	23.1747379414894	0.00022125244140625	0.734588623046875
684	0.732421875	23.1991379414278	0.000216705322265625	0.732208251953125
685	0.72998046875	23.2235379413662	0.0002137451171875	0.729766845703125
686	0.7275390625	23.2479379413046	0.000210662841796875	0.727264404296875
687	0.72509765625	23.272337941243	0.00020703125	0.72491455078125
688	0.72265625	23.2967379411814	0.00020440673828125	0.722412109375
689	0.72021484375	23.3211379411198	0.0002003173828125	0.719970703125
690	0.7177734375	23.3455379410582	0.00019842529296875	0.717620849609375
691	0.71533203125	23.3699379409966	0.00019415283203125	0.71514892578125
692	0.712890625	23.394337940935	0.000191925048828125	0.712646484375
693	0.71044921875	23.4187379408734	0.000188934326171875	0.71026611328125
694	0.7080078125	23.4431379408118	0.000185791015625	0.707794189453125
695	0.70556640625	23.4675379407502	0.000183868408203125	0.705352783203125
696	0.703125	23.4919379406886	0.0001802978515625	0.702972412109375
697	0.70068359375	23.516337940627	0.000178497314453125	0.70050048828125
698	0.6982421875	23.5407379405654	0.0001748046875	0.698028564453125
699	0.69580078125	23.5651379405037	0.00017230224609375	0.695587158203125
700	0.693359375	23.5895379404421	0.000169647216796875	0.693145751953125
701	0.69091796875	23.6139379403805	0.0001671142578125	0.690704345703125
702	0.6884765625	23.6383379403189	0.00016510009765625	0.688262939453125
703	0.68603515625	23.6627379402573	0.00016119384765625	0.68585205078125
704	0.68359375	23.6871379401957	0.000160247802734375	0.6834716796875
705	0.68115234375	23.7115379401341	0.000156585693359375	0.680938720703125
706	0.6787109375	23.7359379400725	0.000155364990234375	0.678497314453125
707	0.67626953125	23.7603379400109	0.0001522216796875	0.676116943359375
708	0.673828125	23.7847379399493	0.00014971923828125	0.673675537109375
709	0.67138671875	23.8091379398877	0.000147674560546875	0.671295166015625
710	0.6689453125	23.8335379398261	0.000145111083984375	0.6688232421875
711	0.66650390625	23.8579379397645	0.000143402099609375	0.666412353515625
712	0.6640625	23.8823379397029	0.00014031982421875	0.663909912109375
713	0.66162109375	23.9067379396413	0.00013873291015625	0.661468505859375
714	0.6591796875	23.9311379395797	0.000136199951171875	0.659088134765625
715	0.65673828125	23.9555379395181	0.000134033203125	0.656646728515625
716	0.654296875	23.9799379394565	0.0001322021484375	0.654205322265625
717	0.65185546875	24.0043379393949	0.00012957763671875	0.65167236328125
718	0.6494140625	24.0287379393333	0.000128265380859375	0.6492919921875
719	0.64697265625	24.0531379392717	0.000125274658203125	0.646820068359375
720	0.64453125	24.0775379392101	0.0001243896484375	0.6444091796875
721	0.64208984375	24.1019379391485	0.00012127685546875	0.6419677734375
722	0.6396484375	24.1263379390869	0.0001201171875	0.639495849609375
723	0.63720703125	24.1507379390252	0.00011798095703125	0.6370849609375
724	0.634765625	24.1751379389636	0.000115753173828125	0.634613037109375
725	0.63232421875	24.199537938902	0.00011492919921875	0.632232666015625
726	0.6298828125	24.2239379388404	0.000111968994140625	0.6297607421875
727	0.62744140625	24.2483379387788	0.000111358642578125	0.627349853515625
728	0.625	24.2727379387172	0.00010870361328125	0.6248779296875
729	0.62255859375	24.2971379386556	0.000107696533203125	0.6224365234375
730	0.6201171875	24.321537938594	0.000106353759765625	0.619964599609375
731	0.61767578125	24.3459379385324	0.000103912353515625	0.617584228515625
732	0.615234375	24.3703379384708	0.00010296630859375	0.615142822265625
733	0.61279296875	24.3947379384092	0.000100616455078125	0.6126708984375
734	0.6103515625	24.4191379383476	9.991455078125E-05	0.610198974609375
735	0.60791015625	24.443537938286	9.7412109375E-05	0.60784912109375
736	0.60546875	24.4679379382244	9.66796875E-05	0.6053466796875
737	0.60302734375	24.4923379381628	9.46044921875E-05	0.6029052734375
738	0.6005859375	24.5167379381012	9.3170166015625E-05	0.6004638671875
739	0.59814453125	24.5411379380396	9.14306640625E-05	0.5977783203125
740	0.595703125	24.565537937978	8.905029296875E-05	0.595489501953125
741	0.59326171875	24.5899379379164	8.89892578125E-05	0.593017578125
742	0.5908203125	24.6143379378548	8.673095703125E-05	0.59063720703125
743	0.58837890625	24.6387379377932	8.6395263671875E-05	0.588134765625
744	0.5859375	24.6631379377316	8.441162109375E-05	0.585723876953125
745	0.58349609375	24.68753793767	8.251953125E-05	0.58331298828125
746	0.5810546875	24.7119379376084	8.1756591796875E-05	0.580841064453125
747	0.57861328125	24.7363379375468	7.9864501953125E-05	0.578399658203125
748	0.576171875	24.7607379374851	7.965087890625E-05	0.575958251953125
749	0.57373046875	24.7851379374235	7.7178955078125E-05	0.573516845703125
750	0.5712890625	24.8095379373619	7.6934814453125E-05	0.57110595703125
751	0.56884765625	24.8339379373003	7.4737548828125E-05	0.5687255859375
752	0.56640625	24.8583379372387	7.391357421875E-05	0.56622314453125
753	0.56396484375	24.8827379371771	7.257080078125E-05	0.563812255859375
754	0.5615234375	24.9071379371155	7.06787109375E-05	0.56134033203125
755	0.55908203125	24.9315379370539	7.049560546875E-05	0.55889892578125
756	0.556640625	24.9559379369923	6.84814453125E-05	0.556427001953125
757	0.55419921875	24.9803379369307	6.8695068359375E-05	0.554046630859375
758	0.5517578125	25.0047379368691	6.6375732421875E-05	0.551605224609375
759	0.54931640625	25.0291379368075	6.591796875E-05	0.549102783203125
760	0.546875	25.0535379367459	6.4239501953125E-05	0.546722412109375
761	0.54443359375	25.0779379366843	6.3232421875E-05	0.544281005859375
762	0.5419921875	25.1023379366227	6.2774658203125E-05	0.541839599609375
763	0.53955078125	25.1267379365611	6.0333251953125E-05	0.53936767578125
764	0.537109375	25.1511379364995	6.0943603515625E-05	0.536895751953125
765	0.53466796875	25.1755379364379	5.9173583984375E-05	0.534515380859375
766	0.5322265625	25.1999379363763	5.89599609375E-05	0.532073974609375
767	0.52978515625	25.2243379363147	5.7403564453125E-05	0.529693603515625
768	0.52734375	25.2487379362531	5.633544921875E-05	0.527099609375
769	0.52490234375	25.2731379361915	5.5816650390625E-05	0.52471923828125
770	0.5224609375	25.2975379361299	5.364990234375E-05	0.5223388671875
771	0.52001953125	25.3219379360683	5.438232421875E-05	0.5198974609375
772	0.517578125	25.3463379360066	5.2337646484375E-05	0.51739501953125
773	0.51513671875	25.370737935945	5.2490234375E-05	0.5150146484375
774	0.5126953125	25.3951379358834	5.047607421875E-05	0.51251220703125
775	0.51025390625	25.4195379358218	4.9774169921875E-05	0.510101318359375
776	0.5078125	25.4439379357602	4.949951171875E-05	0.507659912109375
777	0.50537109375	25.4683379356986	4.78790283203125E-05	0.5052490234375
778	0.5029296875	25.492737935637	4.7900390625E-05	0.5028076171875
779	0.50048828125	25.5171379355754	4.56207275390625E-05	0.500335693359375
780	0.498046875	25.5415379355138	4.6649169921875E-05	0.497894287109375
781	0.49560546875	25.5659379354522	4.49676513671875E-05	0.495452880859375
782	0.4931640625	25.5903379353906	4.39483642578125E-05	0.4930419921875
783	0.49072265625	25.614737935329	4.33563232421875E-05	0.490631103515625
784	0.48828125	25.6391379352674	4.21600341796875E-05	0.48809814453125
785	0.48583984375	25.6635379352058	4.21051025390625E-05	0.48577880859375
786	0.4833984375	25.6879379351442	4.014892578125E-05	0.483306884765625
787	0.48095703125	25.7123379350826	4.02099609375E-05	0.480804443359375
788	0.478515625	25.736737935021	3.87359619140625E-05	0.4783935546875
789	0.47607421875	25.7611379349594	3.84002685546875E-05	0.475982666015625
790	0.4736328125	25.7855379348978	3.7884521484375E-05	0.47357177734375
791	0.47119140625	25.8099379348362	3.66180419921875E-05	0.471038818359375
792	0.46875	25.8343379347746	3.6370849609375E-05	0.4686279296875
793	0.46630859375	25.858737934713	3.47076416015625E-05	0.4661865234375
794	0.4638671875	25.8831379346514	3.52569580078125E-05	0.463714599609375
795	0.46142578125	25.9075379345898	3.3160400390625E-05	0.46124267578125
796	0.458984375	25.9319379345282	3.36639404296875E-05	0.458831787109375
797	0.45654296875	25.9563379344665	3.23333740234375E-05	0.456451416015625
798	0.4541015625	25.9807379344049	3.12408447265625E-05	0.454010009765625
799	0.45166015625	26.0051379343433	3.1182861328125E-05	0.451568603515625
800	0.44921875	26.0295379342817	2.965087890625E-05	0.4490966796875
801	0.44677734375	26.0539379342201	3.04351806640625E-05	0.446685791015625
802	0.4443359375	26.0783379341585	2.8350830078125E-05	0.444244384765625
803	0.44189453125	26.1027379340969	2.88482666015625E-05	0.441802978515625
804	0.439453125	26.1271379340353	2.71759033203125E-05	0.43939208984375
805	0.43701171875	26.1515379339737	2.64495849609375E-05	0.436981201171875
806	0.4345703125	26.1759379339121	2.7008056640625E-05	0.43450927734375
807	0.43212890625	26.2003379338505	2.5079345703125E-05	0.43206787109375
808	0.4296875	26.2247379337889	2.569580078125E-05	0.42962646484375
809	0.42724609375	26.2491379337273	2.3895263671875E-05	0.42718505859375
810	0.4248046875	26.2735379336657	2.4371337890625E-05	0.42474365234375
811	0.42236328125	26.2979379336041	2.30712890625E-05	0.42230224609375
812	0.419921875	26.3223379335425	2.271728515625E-05	0.41986083984375
813	0.41748046875	26.3467379334809	2.2332763671875E-05	0.417449951171875
814	0.4150390625	26.3711379334193	2.081298828125E-05	0.41497802734375
815	0.41259765625	26.3955379333577	2.183837890625E-05	0.412506103515625
816	0.41015625	26.4199379332961	1.9989013671875E-05	0.410064697265625
817	0.40771484375	26.4443379332345	2.05810546875E-05	0.407623291015625
818	0.4052734375	26.4687379331729	1.88232421875E-05	0.40521240234375
819	0.40283203125	26.4931379331113	1.849365234375E-05	0.402740478515625
820	0.400390625	26.5175379330497	1.79931640625E-05	0.400360107421875
821	0.39794921875	26.541937932988	1.7022705078125E-05	0.397918701171875
822	0.3955078125	26.5663379329264	1.7340087890625E-05	0.39544677734375
823	0.39306640625	26.5907379328648	1.52587890625E-05	0.392974853515625
824	0.390625	26.6151379328032	1.62933349609375E-05	0.390533447265625
825	0.38818359375	26.6395379327416	1.47979736328125E-05	0.38818359375
826	0.3857421875	26.66393793268	1.49322509765625E-05	0.385711669921875
827	0.38330078125	26.6883379326184	1.439208984375E-05	0.38330078125
828	0.380859375	26.7127379325568	1.30767822265625E-05	0.380828857421875
829	0.37841796875	26.7371379324952	1.34490966796875E-05	0.37835693359375
830	0.3759765625	26.7615379324336	1.18011474609375E-05	0.376007080078125
831	0.37353515625	26.785937932372	1.2640380859375E-05	0.373504638671875
832	0.37109375	26.8103379323104	1.0870361328125E-05	0.37103271484375
833	0.36865234375	26.8347379322488	1.11602783203125E-05	0.368621826171875
834	0.3662109375	26.8591379321872	1.03851318359375E-05	0.366180419921875
835	0.36376953125	26.8835379321256	9.539794921875E-06	0.36370849609375
836	0.361328125	26.907937932064	9.5123291015625E-06	0.361297607421875
837	0.35888671875	26.9323379320024	8.2061767578125E-06	0.35882568359375
838	0.3564453125	26.9567379319408	8.7677001953125E-06	0.356414794921875
839	0.35400390625	26.9811379318792	7.257080078125E-06	0.354034423828125
840	0.3515625	27.0055379318176	7.7239990234375E-06	0.351409912109375
841	0.34912109375	27.029937931756	6.427001953125E-06	0.3489990234375
842	0.3466796875	27.0543379316944	6.09130859375E-06	0.346588134765625
843	0.34423828125	27.0787379316328	6.33544921875E-06	0.344085693359375
844	0.341796875	27.1031379315712	5.0537109375E-06	0.341644287109375
845	0.33935546875	27.1275379315096	5.6671142578125E-06	0.339263916015625
846	0.3369140625	27.1519379314479	3.5919189453125E-06	0.3367919921875
847	0.33447265625	27.1763379313863	4.0130615234375E-06	0.334442138671875
848	0.33203125	27.2007379313247	2.90252685546875E-06	0.3319091796875
849	0.32958984375	27.2251379312631	2.7783203125E-06	0.329559326171875
850	0.3271484375	27.2495379312015	2.4871826171875E-06	0.327117919921875
851	0.32470703125	27.2739379311399	9.869384765625E-07	0.32464599609375
852	0.322265625	27.2983379310783	1.8255615234375E-06	0.322235107421875
853	0.31982421875	27.3227379310167	3.8360595703125E-07	0.31982421875
854	0.3173828125	27.3471379309551	1.2921142578125E-06	0.3173828125
855	0.31494140625	27.3715379308935	-1.2603759765625E-07	0.31494140625
856	0.3125	27.3959379308319	-2.4139404296875E-07	0.31256103515625
857	0.31005859375	27.4203379307703	-6.1798095703125E-07	0.30999755859375
858	0.3076171875	27.4447379307087	-1.5106201171875E-06	0.307708740234375
859	0.30517578125	27.4691379306471	-1.1083984375E-06	0.305206298828125
860	0.302734375	27.4935379305855	-2.72003173828125E-06	0.302734375
861	0.30029296875	27.5179379305239	-1.76025390625E-06	0.300323486328125
862	0.2978515625	27.5423379304623	-3.25469970703125E-06	0.29791259765625
863	0.29541015625	27.5667379304007	-3.14361572265625E-06	0.29547119140625
864	0.29296875	27.5911379303391	-4.1290283203125E-06	0.2930908203125
865	0.29052734375	27.6155379302775	-5.0872802734375E-06	0.290557861328125
866	0.2880859375	27.6399379302159	-4.6661376953125E-06	0.288177490234375
867	0.28564453125	27.6643379301543	-6.2835693359375E-06	0.285675048828125
868	0.283203125	27.6887379300927	-5.31005859375E-06	0.283233642578125
869	0.28076171875	27.7131379300311	-6.9061279296875E-06	0.28076171875
870	0.2783203125	27.7375379299694	-6.6253662109375E-06	0.2784423828125
871	0.27587890625	27.7619379299078	-7.2235107421875E-06	0.27587890625
872	0.2734375	27.7863379298462	-7.952880859375E-06	0.273590087890625
873	0.27099609375	27.8107379297846	-7.92236328125E-06	0.271148681640625
874	0.2685546875	27.835137929723	-9.6405029296875E-06	0.268646240234375
875	0.26611328125	27.8595379296614	-8.8043212890625E-06	0.2662353515625
876	0.263671875	27.8839379295998	-1.03668212890625E-05	0.263763427734375
877	0.26123046875	27.9083379295382	-9.9365234375E-06	0.2613525390625
878	0.2587890625	27.9327379294766	-1.11602783203125E-05	0.258941650390625
879	0.25634765625	27.957137929415	-1.14593505859375E-05	0.25653076171875
880	0.25390625	27.9815379293534	-1.1383056640625E-05	0.2540283203125
881	0.25146484375	28.0059379292918	-1.25946044921875E-05	0.2515869140625
882	0.2490234375	28.0303379292302	-1.1749267578125E-05	0.249176025390625
883	0.24658203125	28.0547379291686	-1.35498046875E-05	0.246734619140625
884	0.244140625	28.079137929107	-1.27166748046875E-05	0.24432373046875
885	0.24169921875	28.1035379290454	-1.40411376953125E-05	0.241851806640625
886	0.2392578125	28.1279379289838	-1.4166259765625E-05	0.239471435546875
887	0.23681640625	28.1523379289222	-1.45660400390625E-05	0.23699951171875
888	0.234375	28.1767379288606	-1.5777587890625E-05	0.234619140625
889	0.23193359375	28.201137928799	-1.52923583984375E-05	0.232147216796875
890	0.2294921875	28.2255379287374	-1.6705322265625E-05	0.229705810546875
891	0.22705078125	28.2499379286758	-1.5704345703125E-05	0.227264404296875
892	0.224609375	28.2743379286142	-1.7303466796875E-05	0.22479248046875
893	0.22216796875	28.2987379285526	-1.712646484375E-05	0.222412109375
894	0.2197265625	28.323137928491	-1.76513671875E-05	0.219970703125
895	0.21728515625	28.3475379284293	-1.85028076171875E-05	0.217559814453125
896	0.21484375	28.3719379283677	-1.812744140625E-05	0.215087890625
897	0.21240234375	28.3963379283061	-1.98394775390625E-05	0.212646484375
898	0.2099609375	28.4207379282445	-1.88323974609375E-05	0.210235595703125
899	0.20751953125	28.4451379281829	-2.03155517578125E-05	0.20782470703125
900	0.205078125	28.4695379281213	-2.0013427734375E-05	0.20538330078125
901	0.20263671875	28.4939379280597	-2.0989990234375E-05	0.20294189453125
902	0.2001953125	28.5183379279981	-2.1771240234375E-05	0.200531005859375
903	0.19775390625	28.5427379279365	-2.13134765625E-05	0.19805908203125
904	0.1953125	28.5671379278749	-2.2674560546875E-05	0.195648193359375
905	0.19287109375	28.5915379278133	-2.169189453125E-05	0.1932373046875
906	0.1904296875	28.6159379277517	-2.35076904296875E-05	0.190704345703125
907	0.18798828125	28.6403379276901	-2.30133056640625E-05	0.18829345703125
908	0.185546875	28.6647379276285	-2.4005126953125E-05	0.18585205078125
909	0.18310546875	28.6891379275669	-2.430419921875E-05	0.1834716796875
910	0.1806640625	28.7135379275053	-2.42950439453125E-05	0.1810302734375
911	0.17822265625	28.7379379274437	-2.57049560546875E-05	0.178619384765625
912	0.17578125	28.7623379273821	-2.498779296875E-05	0.176177978515625
913	0.17333984375	28.7867379273205	-2.65716552734375E-05	0.17376708984375
914	0.1708984375	28.8111379272589	-2.59124755859375E-05	0.171417236328125
915	0.16845703125	28.8355379271973	-2.70538330078125E-05	0.168914794921875
916	0.166015625	28.8599379271357	-2.7410888671875E-05	0.166473388671875
917	0.16357421875	28.8843379270741	-2.74932861328125E-05	0.16400146484375
918	0.1611328125	28.9087379270125	-2.85888671875E-05	0.161651611328125
919	0.15869140625	28.9331379269508	-2.79296875E-05	0.159210205078125
920	0.15625	28.9575379268892	-2.98126220703125E-05	0.156707763671875
921	0.15380859375	28.9819379268276	-2.89093017578125E-05	0.154388427734375
922	0.1513671875	29.006337926766	-3.01971435546875E-05	0.15185546875
923	0.14892578125	29.0307379267044	-3.02398681640625E-05	0.148956298828125
924	0.146484375	29.0551379266428	-3.0682373046875E-05	0.146636962890625
925	0.14404296875	29.0795379265812	-3.1793212890625E-05	0.144134521484375
926	0.1416015625	29.1039379265196	-3.1195068359375E-05	0.14166259765625
927	0.13916015625	29.128337926458	-3.26690673828125E-05	0.139251708984375
928	0.13671875	29.1527379263964	-3.18450927734375E-05	0.136871337890625
929	0.13427734375	29.1771379263348	-3.34381103515625E-05	0.134429931640625
930	0.1318359375	29.2015379262732	-3.32855224609375E-05	0.131927490234375
931	0.12939453125	29.2259379262116	-3.3795166015625E-05	0.12945556640625
932	0.126953125	29.25033792615	-3.446044921875E-05	0.127105712890625
933	0.12451171875	29.2747379260884	-3.41156005859375E-05	0.1246337890625
934	0.1220703125	29.2991379260268	-3.58001708984375E-05	0.1221923828125
935	0.11962890625	29.3235379259652	-3.48175048828125E-05	0.1197509765625
936	0.1171875	29.3479379259036	-3.629150390625E-05	0.117340087890625
937	0.11474609375	29.372337925842	-3.59619140625E-05	0.1148681640625
938	0.1123046875	29.3967379257804	-3.6767578125E-05	0.11236572265625
939	0.10986328125	29.4211379257188	-3.75213623046875E-05	0.109954833984375
940	0.107421875	29.4455379256572	-3.72100830078125E-05	0.1075439453125
941	0.10498046875	29.4699379255956	-3.857421875E-05	0.105072021484375
942	0.1025390625	29.494337925534	-3.7689208984375E-05	0.102630615234375
943	0.10009765625	29.5187379254724	-3.94744873046875E-05	0.100189208984375
944	0.09765625	29.5431379254107	-3.8763427734375E-05	0.097747802734375
945	0.09521484375	29.5675379253491	-3.97674560546875E-05	0.0953369140625
946	0.0927734375	29.5919379252875	-4.00177001953125E-05	0.092864990234375
947	0.09033203125	29.6163379252259	-4.002685546875E-05	0.0904541015625
948	0.087890625	29.6407379251643	-4.14306640625E-05	0.0880126953125
949	0.08544921875	29.6651379251027	-4.06036376953125E-05	0.085540771484375
950	0.0830078125	29.6895379250411	-4.212646484375E-05	0.0831298828125
951	0.08056640625	29.7139379249795	-4.13360595703125E-05	0.080657958984375
952	0.078125	29.7383379249179	-4.25994873046875E-05	0.078216552734375
953	0.07568359375	29.7627379248563	-4.28375244140625E-05	0.075775146484375
954	0.0732421875	29.7871379247947	-4.295654296875E-05	0.0733642578125
955	0.07080078125	29.8115379247331	-4.40216064453125E-05	0.070892333984375
956	0.068359375	29.8359379246715	-4.33624267578125E-05	0.068511962890625
957	0.06591796875	29.8603379246099	-4.512939453125E-05	0.0660400390625
958	0.0634765625	29.8847379245483	-4.422607421875E-05	0.06353759765625
959	0.06103515625	29.9091379244867	-4.54620361328125E-05	0.0611572265625
960	0.05859375	29.9335379244251	-4.53582763671875E-05	0.0587158203125
961	0.05615234375	29.9579379243635	-4.5892333984375E-05	0.0562744140625
962	0.0537109375	29.9823379243019	-4.68719482421875E-05	0.0538330078125
963	0.05126953125	30.0067379242403	-4.62677001953125E-05	0.0513916015625
964	0.048828125	30.0311379241787	-4.7735595703125E-05	0.048968505859375
965	0.04638671875	30.0555379241171	-4.6759033203125E-05	0.0465484619140625
966	0.0439453125	30.0799379240555	-4.8388671875E-05	0.044073486328125
967	0.04150390625	30.1043379239939	-4.815673828125E-05	0.0416595458984375
968	0.0390625	30.1287379239322	-4.876708984375E-05	0.0392059326171875
969	0.03662109375	30.1531379238706	-4.9346923828125E-05	0.0367523193359375
970	0.0341796875	30.177537923809	-4.913330078125E-05	0.0343231201171875
971	0.03173828125	30.2019379237474	-5.072021484375E-05	0.0318939208984375
972	0.029296875	30.2263379236858	-4.974365234375E-05	0.02943115234375
973	0.02685546875	30.2507379236242	-5.120849609375E-05	0.027008056640625
974	0.0244140625	30.2751379235626	-5.0628662109375E-05	0.0245758056640625
975	0.02197265625	30.299537923501	-5.1666259765625E-05	0.0221435546875
976	0.01953125	30.3239379234394	-5.218505859375E-05	0.019683837890625
977	0.01708984375	30.3483379233778	-5.206298828125E-05	0.017242431640625
978	0.0146484375	30.3727379233162	-5.3314208984375E-05	0.0147979736328125
979	0.01220703125	30.3971379232546	-5.242919921875E-05	0.0123687744140625
980	0.009765625	30.421537923193	-5.4229736328125E-05	0.00991210937500001
981	0.00732421875	30.4459379231314	-5.352783203125E-05	0.007489013671875
982	0.0048828125	30.4703379230698	-5.4534912109375E-05	0.005035400390625
983	0.00244140625	30.4947379230082	-5.4718017578125E-05	0.0025970458984375
984	0	30.5191379229466	-5.4931640625E-05	0.000158691406249994
985	0.00244140625	30.543537922885	-5.535888671875E-05	0.00260314941406251
986	0.0048828125	30.5679379228234	-5.3741455078125E-05	0.005035400390625
