Index	Time (s)	WE(1).Potential (V)	Corrected time (s)	dWE(1).Potential/dt (V/s)	OCP value (V)
1	31.5748679202811	0.281494140625	0	0	0.325206382601869
2	31.6748679200286	0.282989501953125	0.0999999997475243	0.0149535564705729	
3	31.7748679197762	0.285186767578125	0.199999999495049	0.0254820808768272	
4	31.8748679195237	0.28424072265625	0.299999999242573	-0.0379942394793034	
5	31.9748679192712	0.284881591796875	0.399999998990097	0.0301105622202158	
6	32.0748679190187	0.287139892578125	0.499999998737621	0.0307717733085155	
7	32.1748679187663	0.288116455078125	0.599999998485146	-0.00630694208666682	
8	32.2748679185138	0.2879638671875	0.69999999823267	-0.00666297925636172	
9	32.3748679182613	0.2889404296875	0.799999997980194	0.022938959300518	
10	32.4748679180088	0.28948974609375	0.899999997727718	-0.00183104770258069	
11	32.5748679177564	0.290618896484375	0.999999997475243	0.0175475403666496	
12	32.6748679175039	0.291534423828125	1.09999999722277	0.0054422807879746	
13	32.7748679172514	0.2913818359375	1.19999999697029	-0.00971472542732954	
14	32.8748679169989	0.291961669921875	1.29999999671782	0.0154621805995703	
15	32.9748679167465	0.2930908203125	1.39999999646534	0.0134276831522584	
16	33.074867916494	0.29290771484375	1.49999999621286	-0.014597519300878	
17	33.1748679162415	0.293975830078125	1.59999999596039	0.0254820808768272	
18	33.274867915989	0.293914794921875	1.69999999570791	-0.0141906198114157	
19	33.3748679157366	0.29486083984375	1.79999999545544	0.0216165352612734	
20	33.4748679154841	0.295013427734375	1.89999999520296	-0.00844316463917494	
21	33.5748679152316	0.294464111328125	1.99999999495049	-0.00869747623801231	
22	33.6748679149791	0.29571533203125	2.09999999469801	0.0298562496900558	
23	33.7748679147267	0.29559326171875	2.19999999444553	-0.0186665132641792	
24	33.8748679144742	0.296478271484375	2.29999999419306	0.0218199845403433	
25	33.9748679142217	0.295684814453125	2.39999999394058	-0.0252786315977573	
26	34.0748679139692	0.296356201171875	2.49999999368811	0.0245156940072775	
27	34.1748679137168	0.296844482421875	2.59999999343563	-0.00152587308548391	
28	34.2748679134643	0.29656982421875	2.69999999318316	-0.00849402695894241	
29	34.3748679132118	0.296661376953125	2.79999999293068	0.00651039183139801	
30	34.4748679129593	0.296722412109375	2.8999999926782	-0.000864661415107548	
31	34.5748679127068	0.297149658203125	2.99999999242573	0.007425915915519	
32	34.6748679124544	0.2978515625	3.09999999217325	0.00808712746948004	
33	34.7748679122019	0.298431396484375	3.19999999192078	0.00386554514989257	
34	34.8748679119494	0.29864501953125	3.2999999916683	-0.00050862436182797	
35	34.9748679116969	0.297149658203125	3.39999999141583	-0.0279743392020464	
36	35.0748679114445	0.297637939453125	3.49999999116335	0.0271096788346767	
37	35.174867911192	0.296661376953125	3.59999999091087	-0.0285846889019012	
38	35.2748679109395	0.29669189453125	3.6999999906584	0.0135802701115608	
39	35.374867910687	0.296875	3.79999999040592	-0.000254312180913985	
40	35.4748679104346	0.2978515625	3.89999999015345	0.0158690810203552	
41	35.5748679101821	0.298065185546875	3.99999998990097	-0.00686642900109291	
42	35.6748679099296	0.299468994140625	4.0999999896485	0.0264993291348219	
43	35.7748679096771	0.30010986328125	4.19999998939602	-0.00391640746966004	
44	35.8748679094247	0.300384521484375	4.29999998914354	0.00223794719204307	
45	35.9748679091722	0.300384521484375	4.39999998889107	-0.00106811115983874	
46	36.0748679089197	0.299163818359375	4.49999998863859	-0.0214639473706484	
47	36.1748679086672	0.299468994140625	4.59999998838612	0.0198363494127989	
48	36.2748679084148	0.30096435546875	4.69999998813364	0.019785488024354	
49	36.3748679081623	0.30059814453125	4.79999998788116	-0.0231424085795879	
50	36.4748679079098	0.30145263671875	4.89999998762869	0.0249225944280624	
51	36.5748679076573	0.3006591796875	4.99999998737621	-0.0257363934069872	
52	36.6748679074049	0.301177978515625	5.09999998712374	0.0216165352612734	
53	36.7748679071524	0.300201416015625	5.19999998687126	-0.0266010537743568	
54	36.8748679068999	0.30096435546875	5.29999998661879	0.0271096788346767	
55	36.9748679066474	0.3013916015625	5.39999998636631	-0.00432330695912242	
56	37.074867906395	0.302032470703125	5.49999998611383	0.00930782593786716	
57	37.1748679061425	0.301177978515625	5.59999998586136	-0.0217182599008083	
58	37.27486790589	0.302703857421875	5.69999998560888	0.0400796011090279	
59	37.3748679056375	0.303375244140625	5.79999998535641	-0.00834143999963999	
60	37.4748679053851	0.304351806640625	5.89999998510393	0.0151570057496428	
61	37.5748679051326	0.30487060546875	5.99999998485146	0.000356037053279579	
62	37.6748679048801	0.304290771484375	6.09999998459898	-0.0134276831522584	
63	37.7748679046276	0.30517578125	6.1999999843465	0.0247191432863474	
64	37.8748679043752	0.306365966796875	6.29999998409403	0.00956213846802711	
65	37.9748679041227	0.306793212890625	6.39999998384155	-0.00310260872356594	
66	38.0748679038702	0.30584716796875	6.49999998358908	-0.0183613393455744	
67	38.1748679036177	0.305389404296875	6.5999999833366	0.00406899489462376	
68	38.2748679033652	0.306182861328125	6.69999998308413	0.0167337413877249	
69	38.3748679031128	0.30609130859375	6.79999998283165	-0.0124612972140312	
70	38.4748679028603	0.306671142578125	6.89999998257917	0.0143432067707181	
71	38.5748679026078	0.30718994140625	6.9999999823267	0.00244139693677425	
72	38.6748679023553	0.307708740234375	7.09999998207422	0.00539141846820712	
73	38.7748679021029	0.307525634765625	7.19999998182175	-0.00768022798001766	
74	38.8748679018504	0.307525634765625	7.29999998156927	0.00386554514989257	
75	38.9748679015979	0.30865478515625	7.3999999813168	0.0200906619429588	
76	39.0748679013454	0.310028076171875	7.49999998106432	0.0120035354048014	
77	39.174867901093	0.309967041015625	7.59999998081184	-0.0133768208324909	
78	39.2748679008405	0.309906005859375	7.69999998055937	0.00417071999981999	
79	39.374867900588	0.310028076171875	7.79999998030689	0.00274657155387104	
80	39.4748679003355	0.310028076171875	7.89999998005442	-0.0016275979578495	
81	39.5748679000831	0.310455322265625	7.99999997980194	0.00823971442878246	
82	39.6748678998306	0.309112548828125	8.09999997954947	-0.0296019371598959	
83	39.7748678995781	0.31024169921875	8.19999997929699	0.0377907902002335	
84	39.8748678993256	0.30999755859375	8.29999997904451	-0.0221251603215933	
85	39.9748678990732	0.311492919921875	8.39999997879204	0.0340269692242146	
86	40.0748678988207	0.31036376953125	8.49999997853956	-0.038960624486208	
87	40.1748678985682	0.31146240234375	8.59999997828709	0.0382994152605534	
88	40.2748678983157	0.3114013671875	8.69999997803461	-0.0177001282572746	
89	40.3748678980633	0.30987548828125	8.79999997778214	-0.0236001703888178	
90	40.4748678978108	0.309478759765625	8.89999997752966	0.0103250741958618	
91	40.5748678975583	0.309234619140625	8.99999997727718	-0.00493365619331598	
92	40.6748678973058	0.308929443359375	9.09999997702471	-0.00406899489462376	
93	40.7748678970534	0.30914306640625	9.19999997677223	0.00666297925636172	
94	40.8748678968009	0.308135986328125	9.29999997651976	-0.0219725724309683	
95	40.9748678965484	0.30987548828125	9.39999997626728	0.0443520434200764	
96	41.0748678962959	0.3101806640625	9.49999997601481	-0.0180561654269695	
97	41.1748678960435	0.31048583984375	9.59999997576233	0.00783281493932009	
98	41.274867895791	0.311737060546875	9.69999997550985	0.0203958377242088	
99	41.3748678955385	0.310577392578125	9.79999997525738	-0.0348407700657845	
100	41.474867895286	0.310943603515625	9.8999999750049	0.0244139693677425	
101	41.5748678950335	0.310882568359375	9.99999997475243	-0.00925696361809969	
102	41.6748678947811	0.3111572265625	10.0999999745	0.00696815364062786	
103	41.7748678945286	0.31085205078125	10.1999999742475	-0.00900265108793974	
104	41.8748678942761	0.310638427734375	10.299999973995	0.000559486798010767	
105	41.9748678940236	0.311279296875	10.3999999737425	0.0132242338731885	
106	42.0748678937712	0.312042236328125	10.49999997349	0.0057983179576695	
107	42.1748678935187	0.3121337890625	10.5999999732376	-0.0050862436182797	
108	42.2748678932662	0.31182861328125	10.6999999729851	-0.00411985721439123	
109	42.3748678930137	0.310882568359375	10.7999999727326	-0.0134785454720259	
110	42.4748678927613	0.311492919921875	10.8999999724801	0.0212096367031336	
111	42.5748678925088	0.3121337890625	10.9999999722277	0.00147501064930111	
112	42.6748678922563	0.3116455078125	11.0999999719752	-0.0143940690904856	
113	42.7748678920038	0.3116455078125	11.1999999717227	0.00783281493932009	
114	42.8748678917514	0.310394287109375	11.2999999714702	-0.0245665572583675	
115	42.9748678914989	0.31036376953125	11.3999999712178	0.0140380328521132	
116	43.0748678912464	0.30938720703125	11.4999999709653	-0.0217182599008083	
117	43.1748678909939	0.31085205078125	11.5999999707128	0.0381468273699284	
118	43.2748678907415	0.3111572265625	11.6999999704603	-0.0147501062601805	
119	43.374867890489	0.3104248046875	11.7999999702079	-0.0121052600443363	
120	43.4748678902365	0.31103515625	11.8999999699554	0.0207518748939037	
121	43.574867889984	0.310577392578125	11.9999999697029	-0.0179544407874346	
122	43.6748678897316	0.308685302734375	12.0999999694504	-0.0273131281137466	
123	43.7748678894791	0.30999755859375	12.199999969198	0.0446063578128815	
124	43.8748678892266	0.3089599609375	12.2999999689455	-0.0406390875577927	
125	43.9748678889741	0.3092041015625	12.399999968693	0.0209553241729736	
126	44.0748678887217	0.30914306640625	12.4999999684405	-0.007425915915519	
127	44.1748678884692	0.30987548828125	12.5999999681881	0.0149535564705729	
128	44.2748678882167	0.309234619140625	12.6999999679356	-0.0204975623637438	
129	44.3748678879642	0.309112548828125	12.7999999676831	0.00768022798001766	
130	44.4748678877118	0.3114013671875	12.8999999674306	0.0412494353950024	
131	44.5748678874593	0.3116455078125	12.9999999671782	-0.022633783519268	
132	44.6748678872068	0.309600830078125	13.0999999669257	-0.0327045470476151	
133	44.7748678869543	0.30963134765625	13.1999999666732	0.0252277683466673	
134	44.8748678867018	0.308807373046875	13.2999999664207	-0.0222777463495731	
135	44.9748678864494	0.310028076171875	13.3999999661683	0.0320941954851151	
136	45.0748678861969	0.310150146484375	13.4999999659158	-0.0147501062601805	
137	45.1748678859444	0.309967041015625	13.5999999656633	-0.000712074106559157	
138	45.2748678856919	0.3094482421875	13.6999999654108	-0.00696815364062786	
139	45.3748678854395	0.31011962890625	13.7999999651583	0.0177509896457195	
140	45.474867885187	0.312286376953125	13.8999999649059	0.0301614254713058	
141	45.5748678849345	0.31103515625	13.9999999646534	-0.0459796413779259	
142	45.674867884682	0.311309814453125	14.0999999644009	0.0268553663045168	
143	45.7748678844296	0.31231689453125	14.1999999641484	0.0110880108550191	
144	45.8748678841771	0.311187744140625	14.299999963896	-0.0315347090363503	
145	45.9748678839246	0.313018798828125	14.3999999636435	0.0500994995236397	
146	46.0748678836721	0.3133544921875	14.499999963391	-0.0189716890454292	
147	46.1748678834197	0.31298828125	14.5999999631385	-0.00452675670385361	
148	46.2748678831672	0.312530517578125	14.6999999628861	-0.00300088385120034	
149	46.3748678829147	0.313140869140625	14.7999999626336	0.0153095936402678	
150	46.4748678826622	0.31475830078125	14.8999999623811	0.0210061855614185	
151	46.5748678824098	0.314453125	14.9999999621286	-0.0224303342401981	
152	46.6748678821573	0.3148193359375	15.0999999618762	0.0156656298786402	
153	46.7748678819048	0.314788818359375	15.1999999616237	-0.00584918027743697	
154	46.8748678816523	0.314849853515625	15.2999999613712	0.00269570923410356	
155	46.9748678813999	0.31475830078125	15.3999999611187	-0.00249225948937237	
156	47.0748678811474	0.314605712890625	15.4999999608663	-0.00152587308548391	
157	47.1748678808949	0.31451416015625	15.5999999606138	-0.000203449744731188	
158	47.2748678806424	0.31390380859375	15.6999999603613	-0.0106302490457892	
159	47.37486788039	0.31439208984375	15.7999999601088	0.0157673545181751	
160	47.4748678801375	0.315032958984375	15.8999999598564	0.00401813257485628	
161	47.574867879885	0.31591796875	15.9999999596039	0.0103759374469519	
162	47.6748678796325	0.31597900390625	16.0999999593514	-0.0070698787458241	
163	47.7748678793801	0.31634521484375	16.1999999590989	0.00895178876817226	
164	47.8748678791276	0.316070556640625	16.2999999588465	-0.00910437572747469	
165	47.9748678788751	0.314971923828125	16.399999958594	-0.0157164931297302	
166	48.0748678786226	0.3155517578125	16.4999999583415	0.0225320588797331	
167	48.1748678783702	0.315643310546875	16.599999958089	-0.00874833948910236	
168	48.2748678781177	0.314178466796875	16.6999999578366	-0.025990704074502	
169	48.3748678778652	0.31317138671875	16.7999999575841	-0.00106811115983874	
170	48.4748678776127	0.31341552734375	16.8999999573316	0.011342323385179	
171	48.5748678773602	0.3140869140625	16.9999999570791	0.00610349234193563	
172	48.6748678771078	0.31353759765625	17.0999999568267	-0.0170897785574198	
173	48.7748678768553	0.314971923828125	17.1999999565742	0.0349424928426743	
174	48.8748678766028	0.313507080078125	17.2999999563217	-0.0454201549291611	
175	48.9748678763503	0.31365966796875	17.3999999560692	0.0246682818979025	
176	49.0748678760979	0.312744140625	17.4999999558167	-0.0234475824981928	
177	49.1748678758454	0.314208984375	17.5999999555643	0.0380451008677483	
178	49.2748678755929	0.313629150390625	17.6999999553118	-0.0307717733085155	
179	49.3748678753404	0.31298828125	17.7999999550593	-0.000101724872365594	
180	49.474867875088	0.31231689453125	17.8999999548068	-0.00676470389589667	
181	49.5748678748355	0.313751220703125	17.9999999545544	0.0319924727082253	
182	49.674867874583	0.312591552734375	18.0999999543019	-0.0402321852743626	
183	49.7748678743305	0.313720703125	18.1999999540494	0.0390114895999432	
184	49.8748678740781	0.31304931640625	18.2999999537969	-0.0293476264923811	
185	49.9748678738256	0.313507080078125	18.3999999535445	0.0199889373034239	
186	50.0748678735731	0.313385009765625	18.499999953292	-0.00981645006686449	
187	50.1748678733206	0.315673828125	18.5999999530395	0.0449115298688412	
188	50.2748678730682	0.315399169921875	18.699999952787	-0.0321450605988503	
189	50.3748678728157	0.3133544921875	18.7999999525346	-0.0266519170254469	
190	50.4748678725632	0.3135986328125	18.8999999522821	0.0274148527532816	
191	50.5748678723107	0.31671142578125	18.9999999520296	0.0474037900567055	
192	50.6748678720583	0.314788818359375	19.0999999517771	-0.0707496479153633	
193	50.7748678718058	0.3148193359375	19.1999999515247	0.03336575999856	
194	50.8748678715533	0.3154296875	19.2999999512722	0.00442503206431866	
195	50.9748678713008	0.31622314453125	19.3999999510197	0.00752764055505395	
196	51.0748678710484	0.31402587890625	19.4999999507672	-0.0475055165588856	
197	51.1748678707959	0.316436767578125	19.5999999505148	0.0724789723753929	
198	51.2748678705434	0.31597900390625	19.6999999502623	-0.0438434183597565	
199	51.3748678702909	0.316558837890625	19.7999999500098	0.0240070708096027	
200	51.4748678700385	0.317657470703125	19.8999999497573	0.0118509475141764	
201	51.574867869786	0.31793212890625	19.9999999495049	-0.00584918027743697	
202	51.6748678695335	0.31878662109375	20.0999999492524	0.01612339168787	
203	51.774867869281	0.3189697265625	20.1999999489999	-0.00569659285247326	
204	51.8748678690285	0.318756103515625	20.2999999487474	-0.00320433359593153	
205	51.9748678687761	0.318206787109375	20.399999948495	-0.00696815364062786	
206	52.0748678685236	0.318695068359375	20.4999999482425	0.0146483816206455	
207	52.1748678682711	0.319366455078125	20.59999994799	0.00478106923401356	
208	52.2748678680186	0.3187255859375	20.6999999477375	-0.0179544407874346	
209	52.3748678677662	0.31903076171875	20.799999947485	0.0153095936402678	
210	52.4748678675137	0.3192138671875	20.8999999472326	-0.00233967206440866	
211	52.5748678672612	0.31768798828125	20.9999999469801	-0.0290933139622211	
212	52.6748678670087	0.319122314453125	21.0999999467276	0.0447080805897713	
213	52.7748678667563	0.318328857421875	21.1999999464751	-0.0363666415214539	
214	52.8748678665038	0.318359375	21.2999999462227	0.014597519300878	
215	52.9748678662513	0.31829833984375	21.3999999459702	-0.00411985721439123	
216	53.0748678659988	0.317047119140625	21.4999999457177	-0.0221251603215933	
217	53.1748678657464	0.317138671875	21.5999999454652	0.0160725302994251	
218	53.2748678654939	0.319061279296875	21.6999999452128	0.0300088375806808	
219	53.3748678652414	0.318145751953125	21.7999999449603	-0.0389097630977631	
220	53.4748678649889	0.314483642578125	21.8999999447078	-0.0500486381351948	
221	53.5748678647365	0.315216064453125	21.9999999444553	0.0531003847718239	
222	53.674867864484	0.31512451171875	22.0999999442029	-0.0224303342401981	
223	53.7748678642315	0.31488037109375	22.1999999439504	-0.000966386287473142	
224	53.874867863979	0.314239501953125	22.2999999436979	-0.00920610129833221	
225	53.9748678637266	0.316619873046875	22.3999999434454	0.0503029488027096	
226	54.0748678634741	0.31695556640625	22.499999943193	-0.0237527582794428	
227	54.1748678632216	0.318206787109375	22.5999999429405	0.0269570909440517	
228	54.2748678629691	0.319305419921875	22.699999942688	0.00666297925636172	
229	54.3748678627167	0.317779541015625	22.7999999424355	-0.036620955914259	
230	54.4748678624642	0.319244384765625	22.8999999421831	0.0483193136751652	
231	54.5748678622117	0.32122802734375	22.9999999419306	0.0141906198114157	
232	54.6748678619592	0.32080078125	23.0999999416781	-0.0260924305766821	
233	54.7748678617068	0.320526123046875	23.1999999414256	0.00656125415116549	
234	54.8748678614543	0.31927490234375	23.2999999411732	-0.0211587734520435	
235	54.9748678612018	0.318572998046875	23.3999999409207	0.000813798978924751	
236	55.0748678609493	0.3184814453125	23.4999999406682	0.00233967206440866	
237	55.1748678606968	0.3182373046875	23.5999999404157	-0.00574745517224073	
238	55.2748678604444	0.3173828125	23.6999999401633	-0.013122508302331	
239	55.3748678601919	0.316650390625	23.7999999399108	-0.00427244463935494	
240	55.4748678599394	0.316864013671875	23.8999999396583	0.00961300078779459	
241	55.5748678596869	0.315643310546875	23.9999999394058	-0.0273131281137466	
242	55.6748678594345	0.314910888671875	24.0999999391533	0.00152587308548391	
243	55.774867859182	0.315521240234375	24.1999999389009	0.0156656298786402	
244	55.8748678589295	0.313873291015625	24.2999999386484	-0.0397744253277779	
245	55.974867858677	0.314453125	24.3999999383959	0.0318907462060452	
246	56.0748678584246	0.31439208984375	24.4999999381434	-0.0133768208324909	
247	56.1748678581721	0.314300537109375	24.599999937891	0.000966386287473142	
248	56.2748678579196	0.315399169921875	24.6999999376385	0.0210061855614185	
249	56.3748678576671	0.316009521484375	24.799999937386	-0.00193277257494628	
250	56.4748678574147	0.317230224609375	24.8999999371335	0.0189208257943392	
251	56.5748678571622	0.3165283203125	24.9999999368811	-0.0250751804560423	
252	56.6748678569097	0.317596435546875	25.0999999366286	0.0318398848176003	
253	56.7748678566572	0.316986083984375	25.1999999363761	-0.025990704074502	
254	56.8748678564048	0.3172607421875	25.2999999361236	0.0157164931297302	
255	56.9748678561523	0.31744384765625	25.3999999358712	-0.00188191013876349	
256	57.0748678558998	0.31744384765625	25.4999999356187	-0.00122069846838713	
257	57.1748678556473	0.317535400390625	25.5999999353662	0.00228880974464118	
258	57.2748678553949	0.31689453125	25.6999999351137	-0.0128173343837261	
259	57.3748678551424	0.3160400390625	25.7999999348613	-0.00788367725908756	
260	57.4748678548899	0.316131591796875	25.8999999346088	0.00951127521693707	
261	57.5748678546374	0.3204345703125	25.9999999343563	0.0749712288379669	
262	57.674867854385	0.319000244140625	26.0999999341038	-0.0761919319629669	
263	57.7748678541325	0.318939208984375	26.1999999338514	0.0299579743295908	
264	57.87486785388	0.319915771484375	26.2999999335989	0.0138345826417208	
265	57.9748678536275	0.3209228515625	26.3999999333464	0.00686642900109291	
266	58.0748678533751	0.31939697265625	26.4999999330939	-0.036468368023634	
267	58.1748678531226	0.318511962890625	26.5999999328415	0.00493365619331598	
268	58.2748678528701	0.31903076171875	26.699999932589	0.0147501062601805	
269	58.3748678526176	0.318359375	26.7999999323365	-0.0213113613426685	
270	58.4748678523652	0.318389892578125	26.899999932084	0.0101216249167919	
271	58.5748678521127	0.31805419921875	26.9999999318316	-0.00874833948910236	
272	58.6748678518602	0.318328857421875	27.0999999315791	0.00905351340770721	
273	58.7748678516077	0.318115234375	27.1999999313266	-0.00823971442878246	
274	58.8748678513552	0.3187255859375	27.2999999310741	0.014597519300878	
275	58.9748678511028	0.316986083984375	27.3999999308217	-0.039723563939333	
276	59.0748678508503	0.317169189453125	27.4999999305692	0.0256855301558971	
277	59.1748678505978	0.317962646484375	27.5999999303167	0.00661211693659425	
278	59.2748678503453	0.317596435546875	27.6999999300642	-0.0153604559600353	
279	59.3748678500929	0.319091796875	27.7999999298117	0.0343321450054646	
280	59.4748678498404	0.31829833984375	27.8999999295593	-0.033213172107935	
281	59.5748678495879	0.318023681640625	27.9999999293068	0.00920610129833221	
282	59.6748678493354	0.31787109375	28.0999999290543	-0.00223794719204307	
283	59.774867849083	0.318084716796875	28.1999999288018	0.00478106923401356	
284	59.8748678488305	0.318328857421875	28.2999999285494	0.00147501064930111	
285	59.974867848578	0.31719970703125	28.3999999282969	-0.0228372346609831	
286	60.0748678483255	0.317962646484375	28.4999999280444	0.0279743392020464	
287	60.1748678480731	0.318115234375	28.5999999277919	-0.00986731238663197	
288	60.2748678478206	0.319244384765625	28.6999999275395	0.0214639473706484	
289	60.3748678475681	0.317230224609375	28.799999927287	-0.0495908744633198	
290	60.4748678473156	0.31805419921875	28.8999999270345	0.042368408292532	
291	60.5748678470632	0.319244384765625	28.999999926782	0.00549314310774207	
292	60.6748678468107	0.31829833984375	29.0999999265296	-0.0284829642623663	
293	60.7748678465582	0.31793212890625	29.1999999262771	0.00829057674854994	
294	60.8748678463057	0.31866455078125	29.2999999260246	0.0145466569811106	
295	60.9748678460533	0.317352294921875	29.3999999257721	-0.0338235199451447	
296	61.0748678458008	0.31585693359375	29.4999999255197	-0.00966386310756207	
297	61.1748678455483	0.31695556640625	29.5999999252672	0.033213172107935	
298	61.2748678452958	0.3167724609375	29.6999999250147	-0.0211587734520435	
299	61.3748678450434	0.316680908203125	29.7999999247622	0.00411985721439123	
300	61.4748678447909	0.31646728515625	29.8999999245098	-0.00345864566043019	
301	61.5748678445384	0.31866455078125	29.9999999242573	0.0424701347947121	
302	61.6748678442859	0.31732177734375	30.0999999240048	-0.0509641617536545	
303	61.7748678440335	0.319610595703125	30.1999999237523	0.0649513304233551	
304	61.874867843781	0.319580078125	30.2999999234999	-0.0317381620407104	
305	61.9748678435285	0.32080078125	30.3999999232474	0.0303648747503757	
306	62.074867843276	0.320953369140625	30.4999999229949	-0.0115457726642489	
307	62.1748678430235	0.320159912109375	30.5999999227424	-0.0122578470036387	
308	62.2748678427711	0.320831298828125	30.69999992249	0.0220742970705032	
309	62.3748678425186	0.318267822265625	30.7999999222375	-0.0574745535850525	
310	62.4748678422661	0.320526123046875	30.899999921985	0.0735470801591873	
311	62.5748678420136	0.318634033203125	30.9999999217325	-0.0695798099040985	
312	62.6748678417612	0.319793701171875	31.09999992148	0.0508624352514744	
313	62.7748678415087	0.31951904296875	31.1999999212276	-0.0248717311769724	
314	62.8748678412562	0.318939208984375	31.2999999209751	-0.00356037053279579	
315	62.9748678410037	0.319671630859375	31.3999999207226	0.0192768629640341	
316	63.0748678407513	0.317169189453125	31.4999999204701	-0.0563555806875229	
317	63.1748678404988	0.317230224609375	31.5999999202177	0.03275540843606	
318	63.2748678402463	0.316680908203125	31.6999999199652	-0.0191242769360542	
319	63.3748678399938	0.316070556640625	31.7999999197127	-0.00457761948928237	
320	63.4748678397414	0.3177490234375	31.8999999194602	0.0360614657402039	
321	63.5748678394889	0.31671142578125	31.9999999192078	-0.0406390875577927	
322	63.6748678392364	0.31597900390625	32.0999999189553	0.00427244463935494	
323	63.7748678389839	0.31683349609375	32.1999999187028	0.0207518748939037	
324	63.8748678387315	0.316558837890625	32.2999999184503	-0.0174458157271147	
325	63.974867838479	0.3153076171875	32.3999999181979	-0.0168863292783499	
326	64.0748678382265	0.316192626953125	32.4999999179454	0.0299071129411459	
327	64.174867837974	0.316680908203125	32.5999999176929	-0.00554400542750955	
328	64.2748678377216	0.316162109375	32.6999999174404	-0.0122578470036387	
329	64.3748678374691	0.31549072265625	32.799999917188	-0.00462848180904984	
330	64.4748678372166	0.31573486328125	32.8999999169355	0.0105793867260218	
331	64.5748678369641	0.31536865234375	32.999999916683	-0.0118000851944089	
332	64.6748678367117	0.31695556640625	33.0999999164305	0.0341795571148396	
333	64.7748678364592	0.3157958984375	33.1999999161781	-0.0409951247274876	
334	64.8748678362067	0.314239501953125	33.2999999159256	-0.00971472542732954	
335	64.9748678359542	0.313751220703125	33.3999999156731	0.00534055568277836	
336	65.0748678357018	0.31561279296875	33.4999999154206	0.0346373207867146	
337	65.1748678354493	0.315582275390625	33.5999999151682	-0.0239053443074226	
338	65.2748678351968	0.316253662109375	33.6999999149157	0.0188699644058943	
339	65.3748678349443	0.3154296875	33.7999999146632	-0.023040683940053	
340	65.4748678346918	0.315093994140625	33.8999999144107	0.00569659285247326	
341	65.5748678344394	0.312835693359375	33.9999999141583	-0.0402321852743626	
342	65.6748678341869	0.313385009765625	34.0999999139058	0.0352985300123692	
343	65.7748678339344	0.313201904296875	34.1999999136533	-0.0172932278364897	
344	65.8748678336819	0.31268310546875	34.2999999134008	-0.00554400542750955	
345	65.9748678334295	0.31085205078125	34.3999999131483	-0.0281269270926714	
346	66.074867833177	0.311492919921875	34.4999999128959	0.0313821248710155	
347	66.1748678329245	0.3126220703125	34.5999999126434	0.00712074106559157	
348	66.274867832672	0.311737060546875	34.6999999123909	-0.0272622667253017	
349	66.3748678324196	0.311248779296875	34.7999999121384	0.00513710593804717	
350	66.4748678321671	0.31341552734375	34.899999911886	0.0424701347947121	
351	66.5748678319146	0.313568115234375	34.9999999116335	-0.0241087954491377	
352	66.6748678316621	0.3133544921875	35.099999911381	0.00152587308548391	
353	66.7748678314097	0.312744140625	35.1999999111285	-0.00818885210901499	
354	66.8748678311572	0.313629150390625	35.2999999108761	0.022633783519268	
355	66.9748678309047	0.313079833984375	35.3999999106236	-0.0224303342401981	
356	67.0748678306522	0.31024169921875	35.4999999103711	-0.042673584073782	
357	67.1748678303998	0.310302734375	35.5999999101186	0.0323993712663651	
358	67.2748678301473	0.3106689453125	35.6999999098662	-0.00345864566043019	
359	67.3748678298948	0.3111572265625	35.7999999096137	0.00488279387354851	
360	67.4748678296423	0.3095703125	35.8999999093612	-0.0335692092776299	
361	67.5748678293899	0.306793212890625	35.9999999091087	-0.0307717733085155	
362	67.6748678291374	0.308441162109375	36.0999999088563	0.0573219656944275	
363	67.7748678288849	0.308441162109375	36.1999999086038	-0.0284829642623663	
364	67.8748678286324	0.30816650390625	36.2999999083513	0.000457761925645173	
365	67.97486782838	0.30804443359375	36.3999999080988	0.000966386287473142	
366	68.0748678281275	0.307708740234375	36.4999999078464	-0.00564573053270578	
367	68.174867827875	0.30712890625	36.5999999075939	-0.00712074106559157	
368	68.2748678276225	0.30859375	36.6999999073414	0.0325010977685452	
369	68.3748678273701	0.308319091796875	36.7999999070889	-0.0240579321980476	
370	68.4748678271176	0.310150146484375	36.8999999068365	0.0416563339531422	
371	68.5748678268651	0.310089111328125	36.999999906584	-0.0233967211097479	
372	68.6748678266126	0.30902099609375	37.0999999063315	-0.0127664711326361	
373	68.7748678263602	0.309417724609375	37.199999906079	0.019531175494194	
374	68.8748678261077	0.308837890625	37.2999999058266	-0.0188191011548042	
375	68.9748678258552	0.3096923828125	37.3999999055741	0.0237527582794428	
376	69.0748678256027	0.31011962890625	37.4999999053216	-0.00406899489462376	
377	69.1748678253502	0.3115234375	37.5999999050691	0.0236001703888178	
378	69.2748678250978	0.31011962890625	37.6999999048167	-0.0406899489462376	
379	69.3748678248453	0.308929443359375	37.7999999045642	-0.000762936542741954	
380	69.4748678245928	0.309906005859375	37.8999999043117	0.0271096788346767	
381	69.5748678243403	0.310638427734375	37.9999999040592	-0.00193277257494628	
382	69.6748678240879	0.31036376953125	38.0999999038067	-0.0103250741958618	
383	69.7748678238354	0.31072998046875	38.1999999035543	0.0123595716431737	
384	69.8748678235829	0.30853271484375	38.2999999033018	-0.045471016317606	
385	69.9748678233304	0.3079833984375	38.3999999030493	0.0167846046388149	
386	70.074867823078	0.308746337890625	38.4999999027968	0.0130716459825635	
387	70.1748678228255	0.31011962890625	38.5999999025444	0.0144449323415756	
388	70.274867822573	0.31011962890625	38.6999999022919	-0.0134785454720259	
389	70.3748678223205	0.309600830078125	38.7999999020394	-0.00493365619331598	
390	70.4748678220681	0.3087158203125	38.8999999017869	-0.0101724872365594	
391	70.5748678218156	0.310791015625	38.9999999015345	0.0466408543288708	
392	70.6748678215631	0.308013916015625	39.099999901282	-0.0780738368630409	
393	70.7748678213106	0.306884765625	39.1999999010295	0.0186156518757343	
394	70.8748678210582	0.3057861328125	39.299999900777	-0.016225116327405	
395	70.9748678208057	0.3060302734375	39.3999999005246	0.0135294077917933	
396	71.0748678205532	0.306488037109375	39.4999999002721	0.00188191013876349	
397	71.1748678203007	0.3062744140625	39.5999999000196	-0.00844316463917494	
398	71.2748678200483	0.30633544921875	39.6999998997671	0.00513710593804717	
399	71.3748678197958	0.307281494140625	39.7999998995147	0.0159199424088001	
400	71.4748678195433	0.30712890625	39.8999998992622	-0.0136311333626509	
401	71.5748678192908	0.306854248046875	39.9999998990097	-0.000101724872365594	
402	71.6748678190384	0.30755615234375	40.0999998987572	0.0155639052391052	
403	71.7748678187859	0.306060791015625	40.1999998985048	-0.0365192294120789	
404	71.8748678185334	0.3087158203125	40.2999998982523	0.0684608370065689	
405	71.9748678182809	0.308929443359375	40.3999998979998	-0.0320433340966702	
406	72.0748678180285	0.30712890625	40.4999998977473	-0.0266519170254469	
407	72.174867817776	0.307525634765625	40.5999998974949	0.0289915893226862	
408	72.2748678175235	0.30767822265625	40.6999998972424	-0.00783281493932009	
409	72.374867817271	0.305572509765625	40.7999998969899	-0.0390623509883881	
410	72.4748678170185	0.305023193359375	40.8999998967374	0.0150044187903404	
411	72.5748678167661	0.305206298828125	40.999999896485	0.00274657155387104	
412	72.6748678165136	0.305572509765625	41.0999998962325	0.00274657155387104	
413	72.7748678162611	0.30615234375	41.19999989598	0.00696815364062786	
414	72.8748678160086	0.304840087890625	41.2999998957275	-0.0296019371598959	
415	72.9748678157562	0.303802490234375	41.399999895475	-0.00178018526639789	
416	73.0748678155037	0.304290771484375	41.4999998952226	0.01668287999928	
417	73.1748678152512	0.30474853515625	41.5999998949701	-0.000762936542741954	
418	73.2748678149987	0.30511474609375	41.6999998947176	0.00300088385120034	
419	73.3748678147463	0.304443359375	41.7999998944651	-0.0150552811101079	
420	73.4748678144938	0.3070068359375	41.8999998942127	0.0560504049062729	
421	73.5748678142413	0.306671142578125	41.9999998939602	-0.0382994152605534	
422	73.6748678139888	0.30712890625	42.0999998937077	0.0208535995334387	
423	73.7748678137364	0.306915283203125	42.1999998934552	-0.0103759374469519	
424	73.8748678134839	0.305755615234375	42.2999998932028	-0.0172423664480448	
425	73.9748678132314	0.30670166015625	42.3999998929503	0.0301614254713058	
426	74.0748678129789	0.307891845703125	42.4999998926978	0.00691729132086039	
427	74.1748678127265	0.30706787109375	42.5999998924453	-0.0258381180465221	
428	74.274867812474	0.309051513671875	42.6999998921929	0.0499469116330147	
429	74.3748678122215	0.30950927734375	42.7999998919404	-0.0174966789782047	
430	74.474867811969	0.311187744140625	42.8999998916879	0.0320433340966702	
431	74.5748678117166	0.30987548828125	42.9999998914354	-0.0421140976250172	
432	74.6748678114641	0.3114013671875	43.099999891183	0.04887880012393	
433	74.7748678112116	0.308135986328125	43.1999998909305	-0.0820411071181297	
434	74.8748678109591	0.312957763671875	43.299999890678	0.131581127643585	
435	74.9748678107067	0.311248779296875	43.3999998904255	-0.0984696745872498	
436	75.0748678104542	0.3104248046875	43.4999998901731	0.0209044609218836	
437	75.1748678102017	0.309600830078125	43.5999998899206	-0.0111897364258766	
438	75.2748678099492	0.31036376953125	43.6999998896681	0.0208535995334387	
439	75.3748678096968	0.31024169921875	43.7999998894156	-0.0138854449614882	
440	75.4748678094443	0.31011962890625	43.8999998891632	0.0017293228302151	
441	75.5748678091918	0.31109619140625	43.9999998889107	0.0189208257943392	
442	75.6748678089393	0.310394287109375	44.0999998886582	-0.0246682818979025	
443	75.7748678086868	0.310791015625	44.1999998884057	0.0187173765152693	
444	75.8748678084344	0.3128662109375	44.2999998881533	0.0310769490897655	
445	75.9748678081819	0.31231689453125	44.3999998879008	-0.0329588577151299	
446	76.0748678079294	0.311767578125	44.4999998876483	0.00325519591569901	
447	76.1748678076769	0.309417724609375	44.5999998873958	-0.0385028645396233	
448	76.2748678074245	0.309234619140625	44.6999998871433	0.0222268849611282	
449	76.374867807172	0.309600830078125	44.7999998868909	0.00101724872365594	
450	76.4748678069195	0.30999755859375	44.8999998866384	0.00239053461700678	
451	76.574867806667	0.31048583984375	44.9999998863859	0.00554400542750955	
452	76.6748678064146	0.312408447265625	45.0999998861334	0.0308734979480505	
453	76.7748678061621	0.311981201171875	45.199999885881	-0.0286355521529913	
454	76.8748678059096	0.31109619140625	45.2999998856285	-0.00483193155378103	
455	76.9748678056571	0.311614990234375	45.399999885376	0.0184122025966644	
456	77.0748678054047	0.311309814453125	45.4999998851235	-0.014597519300878	
457	77.1748678051522	0.310760498046875	45.5999998848711	-0.00478106923401356	
458	77.2748678048997	0.3116455078125	45.6999998846186	0.0216165352612734	
459	77.3748678046472	0.3125	45.7999998843661	0.00350950821302831	
460	77.4748678043948	0.315277099609375	45.8999998841136	0.0438942834734917	
461	77.5748678041423	0.3145751953125	45.9999998838612	-0.0424192734062672	
462	77.6748678038898	0.31622314453125	46.0999998836087	0.0476581044495106	
463	77.7748678036373	0.31689453125	46.1999998833562	-0.00925696361809969	
464	77.8748678033849	0.317291259765625	46.2999998831037	0.00493365619331598	
465	77.9748678031324	0.318206787109375	46.3999998828513	0.0143940690904856	
466	78.0748678028799	0.31591796875	46.4999998825988	-0.0513201989233494	
467	78.1748678026274	0.31744384765625	46.5999998823463	0.0577288642525673	
468	78.274867802375	0.318939208984375	46.6999998820938	0.0019836351275444	
469	78.3748678021225	0.318267822265625	46.7999998818414	-0.0246682818979025	
470	78.47486780187	0.319488525390625	46.8999998815889	0.0351968072354794	
471	78.5748678016175	0.318389892578125	46.9999998813364	-0.036620955914259	
472	78.6748678013651	0.320098876953125	47.0999998810839	0.0482175908982754	
473	78.7748678011126	0.32110595703125	47.1999998808315	-0.00513710593804717	
474	78.8748678008601	0.321807861328125	47.299999880579	0.00681556668132544	
475	78.9748678006076	0.322479248046875	47.3999998803265	0.00747677823528647	
476	79.0748678003552	0.32135009765625	47.499999880074	-0.026194155216217	
477	79.1748678001027	0.32110595703125	47.5999998798216	0.0109354238957167	
478	79.2748677998502	0.32080078125	47.6999998795691	-0.00651039183139801	
479	79.3748677995977	0.32318115234375	47.7999998793166	0.046386543661356	
480	79.4748677993452	0.324676513671875	47.8999998790641	-0.00137328577693552	
481	79.5748677990928	0.323974609375	47.9999998788116	-0.0223794728517532	
482	79.6748677988403	0.324798583984375	48.0999998785592	0.0282795149832964	
483	79.7748677985878	0.323577880859375	48.1999998783067	-0.0343321450054646	
484	79.8748677983353	0.325653076171875	48.2999998780542	0.0550331547856331	
485	79.9748677980829	0.32513427734375	48.3999998778017	-0.0377907902002335	
486	80.0748677978304	0.324859619140625	48.4999998775493	0.00793454051017761	
487	80.1748677975779	0.325653076171875	48.5999998772968	0.0160216670483351	
488	80.2748677973254	0.325347900390625	48.6999998770443	-0.0157673545181751	
489	80.374867797073	0.326629638671875	48.7999998767918	0.029703663662076	
490	80.4748677968205	0.3270263671875	48.8999998765394	-0.00869747623801231	
491	80.574867796568	0.3291015625	48.9999998762869	0.0376890636980534	
492	80.6748677963155	0.327392578125	49.0999998760344	-0.0542193576693535	
493	80.7748677960631	0.32769775390625	49.1999998757819	0.03245023265481	
494	80.8748677958106	0.32843017578125	49.2999998755295	0.00417071999981999	
495	80.9748677955581	0.329559326171875	49.399999875277	0.0131733706220984	
496	81.0748677953056	0.32794189453125	49.4999998750245	-0.0403847731649876	
497	81.1748677950532	0.328155517578125	49.599999874772	0.0265501923859119	
498	81.2748677948007	0.33026123046875	49.6999998745196	0.0307209119200706	
499	81.3748677945482	0.329132080078125	49.7999998742671	-0.0445554926991463	
500	81.4748677942957	0.327484130859375	49.8999998740146	-0.010019900277257	
501	81.5748677940433	0.326690673828125	49.9999998737621	0.000915523851290345	
502	81.6748677937908	0.32806396484375	50.0999998735097	0.0289407260715961	
503	81.7748677935383	0.32958984375	50.1999998732572	0.00930782593786716	
504	81.8748677932858	0.3306884765625	50.2999998730047	0.00691729132086039	
505	81.9748677930334	0.328857421875	50.3999998727522	-0.0413002967834473	
506	82.0748677927809	0.3282470703125	50.4999998724998	0.0138345826417208	
507	82.1748677925284	0.32781982421875	50.5999998722473	-0.00681556668132544	
508	82.2748677922759	0.326019287109375	50.6999998719948	-0.0300596989691257	
509	82.3748677920235	0.326934814453125	50.7999998717423	0.0363666415214539	
510	82.474867791771	0.32769775390625	50.8999998714899	-0.00269570923410356	
511	82.5748677915185	0.32586669921875	50.9999998712374	-0.039418388158083	
512	82.674867791266	0.32501220703125	51.0999998709849	0.00823971442878246	
513	82.7748677910135	0.3255615234375	51.1999998707324	0.0139363072812557	
514	82.8748677907611	0.32696533203125	51.29999987048	0.0164794288575649	
515	82.9748677905086	0.32537841796875	51.3999998702275	-0.0436399690806866	
516	83.0748677902561	0.32659912109375	51.499999869975	0.0455727428197861	
517	83.1748677900036	0.3262939453125	51.5999998697225	-0.0251260437071323	
518	83.2748677897512	0.32818603515625	51.69999986947	0.0423175469040871	
519	83.3748677894987	0.328369140625	51.7999998692176	-0.0197346247732639	
520	83.4748677892462	0.3289794921875	51.8999998689651	0.0153604559600353	
521	83.5748677889937	0.329193115234375	51.9999998687126	-0.00259398436173797	
522	83.6748677887413	0.329559326171875	52.0999998684601	0.00625607976689935	
523	83.7748677884888	0.3302001953125	52.1999998682077	0.00818885210901499	
524	83.8748677882363	0.331787109375	52.2999998679552	0.0228372346609831	
525	83.9748677879838	0.330230712890625	52.3999998677027	-0.0449115298688412	
526	84.0748677877314	0.329193115234375	52.4999998674502	0.00442503206431866	
527	84.1748677874789	0.330535888671875	52.5999998671978	0.0315347090363503	
528	84.2748677872264	0.33074951171875	52.6999998669453	-0.0152078680694103	
529	84.3748677869739	0.33026123046875	52.7999998666928	-0.00696815364062786	
530	84.4748677867215	0.330108642578125	52.8999998664403	0.00361123308539391	
531	84.574867786469	0.330078125	52.9999998661879	-0.000406899489462376	
532	84.6748677862165	0.32977294921875	53.0999998659354	-0.00574745517224073	
533	84.774867785964	0.330474853515625	53.1999998656829	0.0163268428295851	
534	84.8748677857116	0.33026123046875	53.2999998654304	-0.013122508302331	
535	84.9748677854591	0.329925537109375	53.399999865178	-0.00132242334075272	
536	85.0748677852066	0.33050537109375	53.4999998649255	0.0138345826417208	
537	85.1748677849541	0.32977294921875	53.599999864673	-0.0213113613426685	
538	85.2748677847017	0.3306884765625	53.6999998644205	0.0272622667253017	
539	85.3748677844492	0.3314208984375	53.7999998641681	0.000305174617096782	
540	85.4748677841967	0.329254150390625	53.8999998639156	-0.0452167056500912	
541	85.5748677839442	0.3294677734375	53.9999998636631	0.0316364355385303	
542	85.6748677836918	0.33038330078125	54.0999998634106	0.0070698787458241	
543	85.7748677834393	0.32940673828125	54.1999998631582	-0.0278726145625114	
544	85.8748677831868	0.32916259765625	54.2999998629057	0.00996903795748949	
545	85.9748677829343	0.329681396484375	54.3999998626532	0.00910437572747469	
546	86.0748677826818	0.32806396484375	54.4999998624007	-0.0365192294120789	
547	86.1748677824294	0.326080322265625	54.5999998621483	-0.0157673545181751	
548	86.2748677821769	0.326751708984375	54.6999998618958	0.0300596989691257	
549	86.3748677819244	0.329315185546875	54.7999998616433	0.0325519591569901	
550	86.4748677816719	0.326873779296875	54.8999998613908	-0.0724281072616577	
551	86.5748677814195	0.327056884765625	54.9999998611383	0.0403847731649876	
552	86.674867781167	0.327789306640625	55.0999998608859	0.00315347104333341	
553	86.7748677809145	0.328369140625	55.1999998606334	0.00269570923410356	
554	86.874867780662	0.3271484375	55.2999998603809	-0.0267027784138918	
555	86.9748677804096	0.3291015625	55.3999998601284	0.051981408149004	
556	87.0748677801571	0.328887939453125	55.499999859876	-0.0307717733085155	
557	87.1748677799046	0.327728271484375	55.5999998596235	-0.0122578470036387	
558	87.2748677796521	0.329193115234375	55.699999859371	0.0396726988255978	
559	87.3748677793997	0.329071044921875	55.7999998591185	-0.023193271830678	
560	87.4748677791472	0.329345703125	55.8999998588661	0.011342323385179	
561	87.5748677788947	0.330047607421875	55.9999998586136	0.00925696361809969	
562	87.6748677786422	0.328948974609375	56.0999998583611	-0.0274148527532816	
563	87.7748677783898	0.32891845703125	56.1999998581086	0.014597519300878	
564	87.8748677781373	0.32855224609375	56.2999998578562	-0.010019900277257	
565	87.9748677778848	0.32867431640625	56.3999998576037	0.00640866719186306	
566	88.0748677776323	0.327911376953125	56.4999998573512	-0.0166320167481899	
567	88.1748677773799	0.3271484375	56.5999998570987	-0.00467934412881732	
568	88.2748677771274	0.3282470703125	56.6999998568463	0.0264993291348219	
569	88.3748677768749	0.327392578125	56.7999998565938	-0.0310260858386755	
570	88.4748677766224	0.3277587890625	56.8999998563413	0.0203449744731188	
571	88.57486777637	0.32720947265625	56.9999998560888	-0.0171915031969547	
572	88.6748677761175	0.326446533203125	57.0999998558364	-0.0063578044064343	
573	88.774867775865	0.32598876953125	57.1999998555839	-0.00132242334075272	
574	88.8748677756125	0.32586669921875	57.2999998553314	0.000559486798010767	
575	88.9748677753601	0.324859619140625	57.3999998550789	-0.0185647886246443	
576	89.0748677751076	0.324005126953125	57.4999998548265	-0.00432330695912242	
577	89.1748677748551	0.32489013671875	57.599999854574	0.0228372346609831	
578	89.2748677746026	0.323822021484375	57.6999998543215	-0.03275540843606	
579	89.3748677743502	0.322418212890625	57.799999854069	-0.0103250741958618	
580	89.4748677740977	0.32110595703125	57.8999998538166	-0.0112405987456441	
581	89.5748677738452	0.3197021484375	57.9999998535641	-0.0151061434298754	
582	89.6748677735927	0.320159912109375	58.0999998533116	0.0203958377242088	
583	89.7748677733402	0.319305419921875	58.1999998530591	-0.0256855301558971	
584	89.8748677730878	0.321044921875	58.2999998528066	0.0433856584131718	
585	89.9748677728353	0.3199462890625	58.3999998525542	-0.0432839319109917	
586	90.0748677725828	0.320892333984375	58.4999998523017	0.0359597429633141	
587	90.1748677723303	0.3204345703125	58.5999998520492	-0.0230915453284979	
588	90.2748677720779	0.320404052734375	58.6999998517967	0.00793454051017761	
589	90.3748677718254	0.321502685546875	58.7999998515443	0.0189716890454292	
590	90.4748677715729	0.3216552734375	58.8999998512918	-0.0101216249167919	
591	90.5748677713204	0.3201904296875	58.9999998510393	-0.0249734558165073	
592	90.674867771068	0.321380615234375	59.0999998507868	0.039418388158083	
593	90.7748677708155	0.3216552734375	59.1999998505344	-0.0137328580021858	
594	90.874867770563	0.323455810546875	59.2999998502819	0.0337726585566998	
595	90.9748677703105	0.32318115234375	59.3999998500294	-0.0251260437071323	
596	91.0748677700581	0.323638916015625	59.4999998497769	0.0175984036177397	
597	91.1748677698056	0.326019287109375	59.5999998495245	0.0373838916420937	
598	91.2748677695531	0.325836181640625	59.699999849272	-0.0296019371598959	
599	91.3748677693006	0.325958251953125	59.7999998490195	0.0123087093234062	
600	91.4748677690482	0.32745361328125	59.899999848767	0.0253803562372923	
