Index	Potential applied (V)	Time (s)	WE(1).Current (A)	WE(1).Potential (V)
1	0.00244140625	291.019221265247	-1.49932861328125E-05	0.00260314941406251
2	0.0048828125	291.043621265185	-1.49871826171875E-05	0.005023193359375
3	0.00732421875	291.068021265124	-1.47613525390625E-05	0.007476806640625
4	0.009765625	291.092421265062	-1.490478515625E-05	0.00990905761718749
5	0.01220703125	291.116821265001	-1.45111083984375E-05	0.0123565673828125
6	0.0146484375	291.141221264939	-1.4801025390625E-05	0.0147918701171875
7	0.01708984375	291.165621264877	-1.4410400390625E-05	0.017236328125
8	0.01953125	291.190021264816	-1.45477294921875E-05	0.0196929931640625
9	0.02197265625	291.214421264754	-1.43402099609375E-05	0.0221405029296875
10	0.0244140625	291.238821264693	-1.43310546875E-05	0.0245849609375
11	0.02685546875	291.263221264631	-1.43707275390625E-05	0.0269989013671875
12	0.029296875	291.287621264569	-1.4093017578125E-05	0.0294464111328125
13	0.03173828125	291.312021264508	-1.42669677734375E-05	0.031890869140625
14	0.0341796875	291.336421264446	-1.3861083984375E-05	0.034332275390625
15	0.03662109375	291.360821264385	-1.4154052734375E-05	0.0367706298828125
16	0.0390625	291.385221264323	-1.37786865234375E-05	0.039202880859375
17	0.04150390625	291.409621264261	-1.38885498046875E-05	0.0416534423828125
18	0.0439453125	291.4340212642	-1.3726806640625E-05	0.0440948486328125
19	0.04638671875	291.458421264138	-1.36627197265625E-05	0.046563720703125
20	0.048828125	291.482821264077	-1.37420654296875E-05	0.0489654541015625
21	0.05126953125	291.507221264015	-1.34521484375E-05	0.05133056640625
22	0.0537109375	291.531621263953	-1.36627197265625E-05	0.05377197265625
23	0.05615234375	291.556021263892	-1.3232421875E-05	0.056243896484375
24	0.05859375	291.58042126383	-1.35284423828125E-05	0.05865478515625
25	0.06103515625	291.604821263769	-1.32110595703125E-05	0.061126708984375
26	0.0634765625	291.629221263707	-1.33026123046875E-05	0.06353759765625
27	0.06591796875	291.653621263645	-1.31622314453125E-05	0.066009521484375
28	0.068359375	291.678021263584	-1.30523681640625E-05	0.0684814453125
29	0.07080078125	291.702421263522	-1.31866455078125E-05	0.070892333984375
30	0.0732421875	291.726821263461	-1.2860107421875E-05	0.07330322265625
31	0.07568359375	291.751221263399	-1.3055419921875E-05	0.075714111328125
32	0.078125	291.775621263337	-1.25885009765625E-05	0.078155517578125
33	0.08056640625	291.800021263276	-1.28509521484375E-05	0.080596923828125
34	0.0830078125	291.824421263214	-1.2567138671875E-05	0.08306884765625
35	0.08544921875	291.848821263153	-1.25946044921875E-05	0.08551025390625
36	0.087890625	291.873221263091	-1.25030517578125E-05	0.087921142578125
37	0.09033203125	291.897621263029	-1.2274169921875E-05	0.090423583984375
38	0.0927734375	291.922021262968	-1.24786376953125E-05	0.09283447265625
39	0.09521484375	291.946421262906	-1.20697021484375E-05	0.09527587890625
40	0.09765625	291.970821262845	-1.22955322265625E-05	0.0977783203125
41	0.10009765625	291.995221262783	-1.18621826171875E-05	0.100189208984375
42	0.1025390625	292.019621262721	-1.2078857421875E-05	0.102630615234375
43	0.10498046875	292.04402126266	-1.18499755859375E-05	0.105072021484375
44	0.107421875	292.068421262598	-1.17767333984375E-05	0.107513427734375
45	0.10986328125	292.092821262537	-1.1724853515625E-05	0.10992431640625
46	0.1123046875	292.117221262475	-1.15234375E-05	0.112396240234375
47	0.11474609375	292.141621262413	-1.1724853515625E-05	0.1148681640625
48	0.1171875	292.166021262352	-1.13311767578125E-05	0.117279052734375
49	0.11962890625	292.19042126229	-1.15234375E-05	0.11968994140625
50	0.1220703125	292.214821262228	-1.1102294921875E-05	0.12213134765625
51	0.12451171875	292.239221262167	-1.1309814453125E-05	0.12457275390625
52	0.126953125	292.263621262105	-1.1175537109375E-05	0.1270751953125
53	0.12939453125	292.288021262044	-1.10992431640625E-05	0.129486083984375
54	0.1318359375	292.312421261982	-1.10809326171875E-05	0.1319580078125
55	0.13427734375	292.33682126192	-1.082763671875E-05	0.13433837890625
56	0.13671875	292.361221261859	-1.10382080078125E-05	0.13677978515625
57	0.13916015625	292.385621261797	-1.06964111328125E-05	0.139251708984375
58	0.1416015625	292.410021261736	-1.08795166015625E-05	0.1417236328125
59	0.14404296875	292.434421261674	-1.0498046875E-05	0.14410400390625
60	0.146484375	292.458821261612	-1.06201171875E-05	0.14654541015625
61	0.14892578125	292.483221261551	-1.0491943359375E-05	0.148956298828125
62	0.1513671875	292.507621261489	-1.0406494140625E-05	0.15142822265625
63	0.15380859375	292.532021261428	-1.04461669921875E-05	0.15386962890625
64	0.15625	292.556421261366	-1.0076904296875E-05	0.1563720703125
65	0.15869140625	292.580821261304	-1.04156494140625E-05	0.158721923828125
66	0.1611328125	292.605221261243	-9.8907470703125E-06	0.16119384765625
67	0.16357421875	292.629621261181	-1.01593017578125E-05	0.16363525390625
68	0.166015625	292.65402126112	-9.771728515625E-06	0.166046142578125
69	0.16845703125	292.678421261058	-9.893798828125E-06	0.16851806640625
70	0.1708984375	292.702821260996	-9.747314453125E-06	0.170928955078125
71	0.17333984375	292.727221260935	-9.5794677734375E-06	0.173370361328125
72	0.17578125	292.751621260873	-9.6649169921875E-06	0.175811767578125
73	0.17822265625	292.776021260812	-9.307861328125E-06	0.17840576171875
74	0.1806640625	292.80042126075	-9.5428466796875E-06	0.18072509765625
75	0.18310546875	292.824821260688	-9.09423828125E-06	0.183258056640625
76	0.185546875	292.849221260627	-9.246826171875E-06	0.18560791015625
77	0.18798828125	292.873621260565	-8.9385986328125E-06	0.188140869140625
78	0.1904296875	292.898021260504	-8.94775390625E-06	0.190582275390625
79	0.19287109375	292.922421260442	-8.8958740234375E-06	0.192962646484375
80	0.1953125	292.94682126038	-8.734130859375E-06	0.195465087890625
81	0.19775390625	292.971221260319	-8.82568359375E-06	0.1978759765625
82	0.2001953125	292.995621260257	-8.4503173828125E-06	0.200286865234375
83	0.20263671875	293.020021260196	-8.6700439453125E-06	0.2027587890625
84	0.205078125	293.044421260134	-8.282470703125E-06	0.205169677734375
85	0.20751953125	293.068821260072	-8.4503173828125E-06	0.207611083984375
86	0.2099609375	293.093221260011	-8.203125E-06	0.2100830078125
87	0.21240234375	293.117621259949	-8.1573486328125E-06	0.212493896484375
88	0.21484375	293.142021259888	-8.1787109375E-06	0.214935302734375
89	0.21728515625	293.166421259826	-7.91015625E-06	0.2174072265625
90	0.2197265625	293.190821259764	-8.0596923828125E-06	0.219818115234375
91	0.22216796875	293.215221259703	-7.611083984375E-06	0.222320556640625
92	0.224609375	293.239621259641	-7.89794921875E-06	0.22467041015625
93	0.22705078125	293.26402125958	-7.5103759765625E-06	0.227142333984375
94	0.2294921875	293.288421259518	-7.586669921875E-06	0.229583740234375
95	0.23193359375	293.312821259456	-7.4676513671875E-06	0.2320556640625
96	0.234375	293.337221259395	-7.305908203125E-06	0.2344970703125
97	0.23681640625	293.361621259333	-7.3577880859375E-06	0.23687744140625
98	0.2392578125	293.386021259272	-7.0037841796875E-06	0.239288330078125
99	0.24169921875	293.41042125921	-7.110595703125E-06	0.24176025390625
100	0.244140625	293.434821259148	-6.7413330078125E-06	0.244140625
101	0.24658203125	293.459221259087	-6.9610595703125E-06	0.246612548828125
102	0.2490234375	293.483621259025	-6.6375732421875E-06	0.249053955078125
103	0.25146484375	293.508021258963	-6.597900390625E-06	0.251495361328125
104	0.25390625	293.532421258902	-6.4117431640625E-06	0.25396728515625
105	0.25634765625	293.55682125884	-6.2286376953125E-06	0.256439208984375
106	0.2587890625	293.581221258779	-6.4239501953125E-06	0.25885009765625
107	0.26123046875	293.605621258717	-6.06689453125E-06	0.261322021484375
108	0.263671875	293.630021258655	-6.2255859375E-06	0.263763427734375
109	0.26611328125	293.654421258594	-5.8013916015625E-06	0.266143798828125
110	0.2685546875	293.678821258532	-6.0211181640625E-06	0.26849365234375
111	0.27099609375	293.703221258471	-5.718994140625E-06	0.271026611328125
112	0.2734375	293.727621258409	-5.731201171875E-06	0.273406982421875
113	0.27587890625	293.752021258347	-5.6488037109375E-06	0.27587890625
114	0.2783203125	293.776421258286	-5.450439453125E-06	0.278350830078125
115	0.28076171875	293.800821258224	-5.52978515625E-06	0.28082275390625
116	0.283203125	293.825221258163	-5.1025390625E-06	0.283203125
117	0.28564453125	293.849621258101	-5.35888671875E-06	0.28564453125
118	0.2880859375	293.874021258039	-4.8187255859375E-06	0.2880859375
119	0.29052734375	293.898421257978	-5.072021484375E-06	0.29046630859375
120	0.29296875	293.922821257916	-4.7271728515625E-06	0.29296875
121	0.29541015625	293.947221257855	-4.7576904296875E-06	0.295501708984375
122	0.2978515625	293.971621257793	-4.6875E-06	0.297882080078125
123	0.30029296875	293.996021257731	-4.39788818359375E-06	0.30035400390625
124	0.302734375	294.02042125767	-4.50653076171875E-06	0.302825927734375
125	0.30517578125	294.044821257608	-4.05181884765625E-06	0.30523681640625
126	0.3076171875	294.069221257547	-4.23797607421875E-06	0.30767822265625
127	0.31005859375	294.093621257485	-3.6346435546875E-06	0.31011962890625
128	0.3125	294.118021257423	-3.85650634765625E-06	0.31256103515625
129	0.31494140625	294.142421257362	-3.58795166015625E-06	0.315032958984375
130	0.3173828125	294.1668212573	-3.41339111328125E-06	0.317352294921875
131	0.31982421875	294.191221257239	-3.37921142578125E-06	0.319915771484375
132	0.322265625	294.215621257177	-3.21197509765625E-06	0.32232666015625
133	0.32470703125	294.240021257115	-3.31787109375E-06	0.324737548828125
134	0.3271484375	294.264421257054	-2.784423828125E-06	0.327178955078125
135	0.32958984375	294.288821256992	-2.96051025390625E-06	0.329620361328125
136	0.33203125	294.313221256931	-2.51556396484375E-06	0.33209228515625
137	0.33447265625	294.337621256869	-2.68524169921875E-06	0.334503173828125
138	0.3369140625	294.362021256807	-2.4395751953125E-06	0.336944580078125
139	0.33935546875	294.386421256746	-2.1807861328125E-06	0.339385986328125
140	0.341796875	294.410821256684	-2.064208984375E-06	0.341827392578125
141	0.34423828125	294.435221256623	-1.75506591796875E-06	0.344268798828125
142	0.3466796875	294.459621256561	-1.95770263671875E-06	0.34674072265625
143	0.34912109375	294.484021256499	-1.3739013671875E-06	0.349151611328125
144	0.3515625	294.508421256438	-1.5631103515625E-06	0.351593017578125
145	0.35400390625	294.532821256376	-1.10137939453125E-06	0.35406494140625
146	0.3564453125	294.557221256315	-1.1602783203125E-06	0.3564453125
147	0.35888671875	294.581621256253	-9.8724365234375E-07	0.358917236328125
148	0.361328125	294.606021256191	-6.1126708984375E-07	0.36126708984375
149	0.36376953125	294.63042125613	-5.511474609375E-07	0.363800048828125
150	0.3662109375	294.654821256068	-1.9012451171875E-07	0.366180419921875
151	0.36865234375	294.679221256006	-4.736328125E-07	0.36865234375
152	0.37109375	294.703621255945	1.56707763671875E-07	0.371124267578125
153	0.37353515625	294.728021255883	4.0283203125E-08	0.373443603515625
154	0.3759765625	294.752421255822	5.523681640625E-07	0.37591552734375
155	0.37841796875	294.77682125576	5.2978515625E-07	0.378326416015625
156	0.380859375	294.801221255698	9.033203125E-07	0.3807373046875
157	0.38330078125	294.825621255637	1.1077880859375E-06	0.383148193359375
158	0.3857421875	294.850021255575	1.12884521484375E-06	0.385589599609375
159	0.38818359375	294.874421255514	1.54541015625E-06	0.387969970703125
160	0.390625	294.898821255452	1.3909912109375E-06	0.390289306640625
161	0.39306640625	294.92322125539	1.92779541015625E-06	0.392730712890625
162	0.3955078125	294.947621255329	2.1697998046875E-06	0.394989013671875
163	0.39794921875	294.972021255267	2.54730224609375E-06	0.397552490234375
164	0.400390625	294.996421255206	2.5482177734375E-06	0.39971923828125
165	0.40283203125	295.020821255144	2.82806396484375E-06	0.40228271484375
166	0.4052734375	295.045221255082	3.30169677734375E-06	0.404541015625
167	0.40771484375	295.069621255021	3.29071044921875E-06	0.407562255859375
168	0.41015625	295.094021254959	3.86444091796875E-06	0.4100341796875
169	0.41259765625	295.118421254898	3.87176513671875E-06	0.412445068359375
170	0.4150390625	295.142821254836	4.5037841796875E-06	0.414947509765625
171	0.41748046875	295.167221254774	4.486083984375E-06	0.417388916015625
172	0.419921875	295.191621254713	4.9407958984375E-06	0.419830322265625
173	0.42236328125	295.216021254651	5.3009033203125E-06	0.42230224609375
174	0.4248046875	295.24042125459	5.4412841796875E-06	0.4246826171875
175	0.42724609375	295.264821254528	5.9844970703125E-06	0.4271240234375
176	0.4296875	295.289221254466	6.201171875E-06	0.429534912109375
177	0.43212890625	295.313621254405	6.842041015625E-06	0.431976318359375
178	0.4345703125	295.338021254343	7.1014404296875E-06	0.434417724609375
179	0.43701171875	295.362421254282	7.830810546875E-06	0.4368896484375
180	0.439453125	295.38682125422	7.8216552734375E-06	0.439239501953125
181	0.44189453125	295.411221254158	8.2855224609375E-06	0.441741943359375
182	0.4443359375	295.435621254097	8.6639404296875E-06	0.444183349609375
183	0.44677734375	295.460021254035	9.02099609375E-06	0.446563720703125
184	0.44921875	295.484421253974	9.6038818359375E-06	0.449066162109375
185	0.45166015625	295.508821253912	9.7930908203125E-06	0.45159912109375
186	0.4541015625	295.53322125385	1.06689453125E-05	0.45391845703125
187	0.45654296875	295.557621253789	1.0791015625E-05	0.456298828125
188	0.458984375	295.582021253727	1.1651611328125E-05	0.45880126953125
189	0.46142578125	295.606421253666	1.1932373046875E-05	0.461151123046875
190	0.4638671875	295.630821253604	1.27410888671875E-05	0.463623046875
191	0.46630859375	295.655221253542	1.328125E-05	0.466064453125
192	0.46875	295.679621253481	1.3641357421875E-05	0.468475341796875
193	0.47119140625	295.704021253419	1.46026611328125E-05	0.470916748046875
194	0.4736328125	295.728421253358	1.50390625E-05	0.47332763671875
195	0.47607421875	295.752821253296	1.59393310546875E-05	0.475738525390625
196	0.478515625	295.777221253234	1.63421630859375E-05	0.4781494140625
197	0.48095703125	295.801621253173	1.7413330078125E-05	0.480621337890625
198	0.4833984375	295.826021253111	1.77398681640625E-05	0.48297119140625
199	0.48583984375	295.850421253049	1.8536376953125E-05	0.4854736328125
200	0.48828125	295.874821252988	1.94488525390625E-05	0.487823486328125
201	0.49072265625	295.899221252926	2.00592041015625E-05	0.490264892578125
202	0.4931640625	295.923621252865	2.1124267578125E-05	0.492706298828125
203	0.49560546875	295.948021252803	2.17987060546875E-05	0.4951171875
204	0.498046875	295.972421252741	2.30010986328125E-05	0.497528076171875
205	0.50048828125	295.99682125268	2.3699951171875E-05	0.49993896484375
206	0.5029296875	296.021221252618	2.4639892578125E-05	0.502349853515625
207	0.50537109375	296.045621252557	2.56683349609375E-05	0.5047607421875
208	0.5078125	296.070021252495	2.664794921875E-05	0.507232666015625
209	0.51025390625	296.094421252433	2.7978515625E-05	0.5096435546875
210	0.5126953125	296.118821252372	2.8857421875E-05	0.51202392578125
211	0.51513671875	296.14322125231	3.03009033203125E-05	0.514373779296875
212	0.517578125	296.167621252249	3.11981201171875E-05	0.5174560546875
213	0.52001953125	296.192021252187	3.26873779296875E-05	0.5198974609375
214	0.5224609375	296.216421252125	3.37005615234375E-05	0.5223388671875
215	0.52490234375	296.240821252064	3.5260009765625E-05	0.5247802734375
216	0.52734375	296.265221252002	3.6517333984375E-05	0.5272216796875
217	0.52978515625	296.289621251941	3.7994384765625E-05	0.5296630859375
218	0.5322265625	296.314021251879	3.9520263671875E-05	0.532135009765625
219	0.53466796875	296.338421251817	4.09027099609375E-05	0.534515380859375
220	0.537109375	296.362821251756	4.27398681640625E-05	0.53692626953125
221	0.53955078125	296.387221251694	4.4097900390625E-05	0.539398193359375
222	0.5419921875	296.411621251633	4.6221923828125E-05	0.541839599609375
223	0.54443359375	296.436021251571	4.78851318359375E-05	0.544281005859375
224	0.546875	296.460421251509	4.98046875E-05	0.546661376953125
225	0.54931640625	296.484821251448	5.1971435546875E-05	0.549102783203125
226	0.5517578125	296.509221251386	5.389404296875E-05	0.5516357421875
227	0.55419921875	296.533621251325	5.584716796875E-05	0.55401611328125
228	0.556640625	296.558021251263	5.780029296875E-05	0.556488037109375
229	0.55908203125	296.582421251201	6.01806640625E-05	0.558929443359375
230	0.5615234375	296.60682125114	6.243896484375E-05	0.56134033203125
231	0.56396484375	296.631221251078	6.5093994140625E-05	0.5638427734375
232	0.56640625	296.655621251017	6.744384765625E-05	0.566162109375
233	0.56884765625	296.680021250955	7.0220947265625E-05	0.568695068359375
234	0.5712890625	296.704421250893	7.293701171875E-05	0.571136474609375
235	0.57373046875	296.728821250832	7.5347900390625E-05	0.5736083984375
236	0.576171875	296.75322125077	7.8460693359375E-05	0.57598876953125
237	0.57861328125	296.777621250709	8.135986328125E-05	0.578399658203125
238	0.5810546875	296.802021250647	8.4625244140625E-05	0.580841064453125
239	0.58349609375	296.826421250585	8.7554931640625E-05	0.583282470703125
240	0.5859375	296.850821250524	9.11865234375E-05	0.585662841796875
241	0.58837890625	296.875221250462	9.4146728515625E-05	0.588134765625
242	0.5908203125	296.899621250401	9.7625732421875E-05	0.590545654296875
243	0.59326171875	296.924021250339	0.00010137939453125	0.592987060546875
244	0.595703125	296.948421250277	0.000105194091796875	0.595428466796875
245	0.59814453125	296.972821250216	0.00010931396484375	0.597869873046875
246	0.6005859375	296.997221250154	0.000113006591796875	0.600311279296875
247	0.60302734375	297.021621250092	0.000117431640625	0.602752685546875
248	0.60546875	297.046021250031	0.00012152099609375	0.60516357421875
249	0.60791015625	297.070421249969	0.000126251220703125	0.607666015625
250	0.6103515625	297.094821249908	0.000130950927734375	0.610015869140625
251	0.61279296875	297.119221249846	0.00013543701171875	0.6124267578125
252	0.615234375	297.143621249784	0.000140625	0.61492919921875
253	0.61767578125	297.168021249723	0.00014569091796875	0.61724853515625
254	0.6201171875	297.192421249661	0.00015130615234375	0.619720458984375
255	0.62255859375	297.2168212496	0.00015655517578125	0.6221923828125
256	0.625	297.241221249538	0.000162078857421875	0.624542236328125
257	0.62744140625	297.265621249476	0.000167633056640625	0.6270751953125
258	0.6298828125	297.290021249415	0.000173858642578125	0.62945556640625
259	0.63232421875	297.314421249353	0.00017987060546875	0.631866455078125
260	0.634765625	297.338821249292	0.0001866455078125	0.634246826171875
261	0.63720703125	297.36322124923	0.000193084716796875	0.636688232421875
262	0.6396484375	297.387621249168	0.00020013427734375	0.639129638671875
263	0.64208984375	297.412021249107	0.0002071533203125	0.64154052734375
264	0.64453125	297.436421249045	0.000214263916015625	0.64398193359375
265	0.64697265625	297.460821248984	0.000221923828125	0.646392822265625
266	0.6494140625	297.485221248922	0.000229583740234375	0.6488037109375
267	0.65185546875	297.50962124886	0.00023779296875	0.6512451171875
268	0.654296875	297.534021248799	0.000245452880859375	0.653594970703125
269	0.65673828125	297.558421248737	0.000253997802734375	0.656005859375
270	0.6591796875	297.582821248676	0.000263214111328125	0.658477783203125
271	0.66162109375	297.607221248614	0.000272369384765625	0.660858154296875
272	0.6640625	297.631621248552	0.000281768798828125	0.663299560546875
273	0.66650390625	297.656021248491	0.000290740966796875	0.66571044921875
274	0.6689453125	297.680421248429	0.000300628662109375	0.668121337890625
275	0.67138671875	297.704821248368	0.000310821533203125	0.6712646484375
276	0.673828125	297.729221248306	0.0003214111328125	0.67364501953125
277	0.67626953125	297.753621248244	0.000331756591796875	0.67608642578125
278	0.6787109375	297.778021248183	0.000342926025390625	0.67852783203125
279	0.68115234375	297.802421248121	0.00035369873046875	0.680938720703125
280	0.68359375	297.82682124806	0.00036566162109375	0.683349609375
281	0.68603515625	297.851221247998	0.00037725830078125	0.68585205078125
282	0.6884765625	297.875621247936	0.000389312744140625	0.688262939453125
283	0.69091796875	297.900021247875	0.000402069091796875	0.690643310546875
284	0.693359375	297.924421247813	0.000414764404296875	0.693115234375
285	0.69580078125	297.948821247752	0.00042828369140625	0.695526123046875
286	0.6982421875	297.97322124769	0.000441650390625	0.69805908203125
287	0.70068359375	297.997621247628	0.000456146240234375	0.700408935546875
288	0.703125	298.022021247567	0.00047021484375	0.702911376953125
289	0.70556640625	298.046421247505	0.000484588623046875	0.705322265625
290	0.7080078125	298.070821247444	0.0004998779296875	0.707733154296875
291	0.71044921875	298.095221247382	0.00051544189453125	0.710235595703125
292	0.712890625	298.11962124732	0.00053131103515625	0.712677001953125
293	0.71533203125	298.144021247259	0.00054718017578125	0.71502685546875
294	0.7177734375	298.168421247197	0.0005645751953125	0.717529296875
295	0.72021484375	298.192821247135	0.0005810546875	0.719970703125
296	0.72265625	298.217221247074	0.0005987548828125	0.722381591796875
297	0.72509765625	298.241621247012	0.000616455078125	0.724822998046875
298	0.7275390625	298.266021246951	0.000634765625	0.727325439453125
299	0.72998046875	298.290421246889	0.000653076171875	0.729736328125
300	0.732421875	298.314821246827	0.00067230224609375	0.732086181640625
301	0.73486328125	298.339221246766	0.00069183349609375	0.734527587890625
302	0.7373046875	298.363621246704	0.00071136474609375	0.736907958984375
303	0.73974609375	298.388021246643	0.00073211669921875	0.73944091796875
304	0.7421875	298.412421246581	0.0007525634765625	0.74188232421875
305	0.74462890625	298.436821246519	0.00077423095703125	0.74432373046875
306	0.7470703125	298.461221246458	0.0007952880859375	0.74676513671875
307	0.74951171875	298.485621246396	0.00081756591796875	0.749176025390625
308	0.751953125	298.510021246335	0.00083984375	0.7513427734375
309	0.75439453125	298.534421246273	0.000863037109375	0.75408935546875
310	0.7568359375	298.558821246211	0.00088653564453125	0.755615234375
311	0.75927734375	298.58322124615	0.00091033935546875	0.758056640625
312	0.76171875	298.607621246088	0.00093536376953125	0.7611083984375
313	0.76416015625	298.632021246027	0.0009600830078125	0.762939453125
314	0.7666015625	298.656421245965	0.000986328125	0.7659912109375
315	0.76904296875	298.680821245903	0.0010113525390625	0.767822265625
316	0.771484375	298.705221245842	0.0010382080078125	0.77056884765625
317	0.77392578125	298.72962124578	0.0010650634765625	0.77301025390625
318	0.7763671875	298.754021245719	0.001092529296875	0.7757568359375
319	0.77880859375	298.778421245657	0.00112091064453125	0.7781982421875
320	0.78125	298.802821245595	0.00114837646484375	0.7806396484375
321	0.78369140625	298.827221245534	0.001177978515625	0.782470703125
322	0.7861328125	298.851621245472	0.00120697021484375	0.7855224609375
323	0.78857421875	298.876021245411	0.00123779296875	0.78826904296875
324	0.791015625	298.900421245349	0.00126739501953125	0.78948974609375
325	0.79345703125	298.924821245287	0.00129913330078125	0.792236328125
326	0.7958984375	298.949221245226	0.00133056640625	0.794677734375
327	0.79833984375	298.973621245164	0.00136260986328125	0.7977294921875
328	0.80078125	298.998021245103	0.00139556884765625	0.8001708984375
329	0.80322265625	299.022421245041	0.00142822265625	0.802001953125
330	0.8056640625	299.046821244979	0.00146270751953125	0.80474853515625
331	0.80810546875	299.071221244918	0.00149627685546875	0.80780029296875
332	0.810546875	299.095621244856	0.00153106689453125	0.81024169921875
333	0.81298828125	299.120021244795	0.0015655517578125	0.81207275390625
334	0.8154296875	299.144421244733	0.00160186767578125	0.8148193359375
335	0.81787109375	299.168821244671	0.00163818359375	0.81756591796875
336	0.8203125	299.19322124461	0.00167449951171875	0.82000732421875
337	0.82275390625	299.217621244548	0.00171234130859375	0.82244873046875
338	0.8251953125	299.242021244487	0.00174896240234375	0.82427978515625
339	0.82763671875	299.266421244425	0.00178863525390625	0.8270263671875
340	0.830078125	299.290821244363	0.00182647705078125	0.8294677734375
341	0.83251953125	299.315221244302	0.001866455078125	0.83160400390625
342	0.8349609375	299.33962124424	0.001905517578125	0.8343505859375
343	0.83740234375	299.364021244179	0.0019464111328125	0.83648681640625
344	0.83984375	299.388421244117	0.0019873046875	0.83892822265625
345	0.84228515625	299.412821244055	0.00202880859375	0.8416748046875
346	0.8447265625	299.437221243994	0.002071533203125	0.84381103515625
347	0.84716796875	299.461621243932	0.00211334228515625	0.84625244140625
348	0.849609375	299.48602124387	0.0021575927734375	0.848388671875
349	0.85205078125	299.510421243809	0.0022003173828125	0.85113525390625
350	0.8544921875	299.534821243747	0.0022454833984375	0.8538818359375
351	0.85693359375	299.559221243686	0.00228973388671875	0.8563232421875
352	0.859375	299.583621243624	0.002335205078125	0.8587646484375
353	0.86181640625	299.608021243562	0.002381591796875	0.8612060546875
354	0.8642578125	299.632421243501	0.00242767333984375	0.8636474609375
355	0.86669921875	299.656821243439	0.00247528076171875	0.865478515625
356	0.869140625	299.681221243378	0.0025213623046875	0.86822509765625
357	0.87158203125	299.705621243316	0.00257080078125	0.87127685546875
358	0.8740234375	299.730021243254	0.002618408203125	0.87310791015625
359	0.87646484375	299.754421243193	0.00266815185546875	0.87615966796875
360	0.87890625	299.778821243131	0.00271697998046875	0.87799072265625
361	0.88134765625	299.80322124307	0.002767333984375	0.88043212890625
362	0.8837890625	299.827621243008	0.002818603515625	0.88287353515625
363	0.88623046875	299.852021242946	0.00286895751953125	0.88531494140625
364	0.888671875	299.876421242885	0.0029205322265625	0.887451171875
365	0.89111328125	299.900821242823	0.00297119140625	0.89019775390625
366	0.8935546875	299.925221242762	0.00302520751953125	0.89263916015625
367	0.89599609375	299.9496212427	0.00307708740234375	0.89508056640625
368	0.8984375	299.974021242638	0.00313140869140625	0.89752197265625
369	0.90087890625	299.998421242577	0.00318450927734375	0.899658203125
370	0.9033203125	300.022821242515	0.00323883056640625	0.90240478515625
371	0.90576171875	300.047221242454	0.00329376220703125	0.90484619140625
372	0.908203125	300.071621242392	0.00334747314453125	0.9075927734375
373	0.91064453125	300.09602124233	0.00340301513671875	0.90972900390625
374	0.9130859375	300.120421242269	0.00345733642578125	0.91217041015625
375	0.91552734375	300.144821242207	0.0035137939453125	0.9149169921875
376	0.91796875	300.169221242146	0.00356842041015625	0.916748046875
377	0.92041015625	300.193621242084	0.00362457275390625	0.91949462890625
378	0.9228515625	300.218021242022	0.00367950439453125	0.92193603515625
379	0.92529296875	300.242421241961	0.0037347412109375	0.92437744140625
380	0.927734375	300.266821241899	0.003790283203125	0.9271240234375
381	0.93017578125	300.291221241838	0.00384368896484375	0.92987060546875
382	0.9326171875	300.315621241776	0.00389862060546875	0.9320068359375
383	0.93505859375	300.340021241714	0.0039501953125	0.9344482421875
384	0.9375	300.364421241653	0.00400421142578125	0.93658447265625
385	0.93994140625	300.388821241591	0.00405487060546875	0.93902587890625
386	0.9423828125	300.41322124153	0.0041058349609375	0.94146728515625
387	0.94482421875	300.437621241468	0.00415435791015625	0.9442138671875
388	0.947265625	300.462021241406	0.00420166015625	0.94635009765625
389	0.94970703125	300.486421241345	0.00424835205078125	0.948486328125
390	0.9521484375	300.510821241283	0.0042926025390625	0.9515380859375
391	0.95458984375	300.535221241222	0.0043365478515625	0.95367431640625
392	0.95703125	300.55962124116	0.00437713623046875	0.955810546875
393	0.95947265625	300.584021241098	0.0044183349609375	0.95855712890625
394	0.9619140625	300.608421241037	0.00445709228515625	0.96160888671875
395	0.96435546875	300.632821240975	0.00449493408203125	0.96343994140625
396	0.966796875	300.657221240913	0.0045306396484375	0.965576171875
397	0.96923828125	300.681621240852	0.0045654296875	0.96832275390625
398	0.9716796875	300.70602124079	0.004599609375	0.97076416015625
399	0.97412109375	300.730421240729	0.0046319580078125	0.972900390625
400	0.9765625	300.754821240667	0.0046636962890625	0.97564697265625
401	0.97900390625	300.779221240605	0.004693603515625	0.9783935546875
402	0.9814453125	300.803621240544	0.0047235107421875	0.9808349609375
403	0.98388671875	300.828021240482	0.00475189208984375	0.98358154296875
404	0.986328125	300.852421240421	0.00477935791015625	0.985107421875
405	0.98876953125	300.876821240359	0.00480621337890625	0.98785400390625
406	0.9912109375	300.901221240297	0.0048321533203125	0.9906005859375
407	0.99365234375	300.925621240236	0.0048577880859375	0.99273681640625
408	0.99609375	300.950021240174	0.00488189697265625	0.994873046875
409	0.99853515625	300.974421240113	0.004906005859375	0.9979248046875
410	1.0009765625	300.998821240051	0.00492889404296875	1.00006103515625
411	1.00341796875	301.023221239989	0.0049517822265625	1.0028076171875
412	1.005859375	301.047621239928	0.0049737548828125	1.00494384765625
413	1.00830078125	301.072021239866	0.00499542236328125	1.007080078125
414	1.0107421875	301.096421239805	0.00501617431640625	1.00982666015625
415	1.01318359375	301.120821239743	0.00503662109375	1.0125732421875
416	1.015625	301.145221239681	0.005057373046875	1.0150146484375
417	1.01806640625	301.16962123962	0.00507659912109375	1.01776123046875
418	1.0205078125	301.194021239558	0.00509613037109375	1.019287109375
419	1.02294921875	301.218421239497	0.00511474609375	1.02142333984375
420	1.025390625	301.242821239435	0.00513336181640625	1.024169921875
421	1.02783203125	301.267221239373	0.00515167236328125	1.02630615234375
422	1.0302734375	301.291621239312	0.00516937255859375	1.0296630859375
423	1.03271484375	301.31602123925	0.005186767578125	1.0321044921875
424	1.03515625	301.340421239189	0.005203857421875	1.03363037109375
425	1.03759765625	301.364821239127	0.005220947265625	1.036376953125
426	1.0400390625	301.389221239065	0.00523712158203125	1.038818359375
427	1.04248046875	301.413621239004	0.00525360107421875	1.0418701171875
428	1.044921875	301.438021238942	0.0052691650390625	1.0443115234375
429	1.04736328125	301.462421238881	0.0052850341796875	1.04644775390625
430	1.0498046875	301.486821238819	0.00530059814453125	1.04888916015625
431	1.05224609375	301.511221238757	0.00531585693359375	1.051025390625
432	1.0546875	301.535621238696	0.00533111572265625	1.05316162109375
433	1.05712890625	301.560021238634	0.00534576416015625	1.0565185546875
434	1.0595703125	301.584421238573	0.0053607177734375	1.058349609375
435	1.06201171875	301.608821238511	0.005374755859375	1.06109619140625
436	1.064453125	301.633221238449	0.00538909912109375	1.063232421875
437	1.06689453125	301.657621238388	0.00540283203125	1.06597900390625
438	1.0693359375	301.682021238326	0.0054168701171875	1.06842041015625
439	1.07177734375	301.706421238265	0.00543060302734375	1.070556640625
440	1.07421875	301.730821238203	0.00544403076171875	1.07330322265625
441	1.07666015625	301.755221238141	0.0054571533203125	1.075439453125
442	1.0791015625	301.77962123808	0.00547027587890625	1.07818603515625
443	1.08154296875	301.804021238018	0.0054833984375	1.08062744140625
444	1.083984375	301.828421237956	0.00549591064453125	1.08367919921875
445	1.08642578125	301.852821237895	0.00550872802734375	1.0858154296875
446	1.0888671875	301.877221237833	0.005521240234375	1.0882568359375
447	1.09130859375	301.901621237772	0.00553375244140625	1.09039306640625
448	1.09375	301.92602123771	0.00554595947265625	1.092529296875
449	1.09619140625	301.950421237648	0.00555816650390625	1.094970703125
450	1.0986328125	301.974821237587	0.005570068359375	1.097412109375
451	1.10107421875	301.999221237525	0.00558197021484375	1.10015869140625
452	1.103515625	302.023621237464	0.00559356689453125	1.1016845703125
453	1.10595703125	302.048021237402	0.00560516357421875	1.104736328125
454	1.1083984375	302.07242123734	0.0056170654296875	1.107177734375
455	1.11083984375	302.096821237279	0.0056280517578125	1.10992431640625
456	1.11328125	302.121221237217	0.0056396484375	1.11175537109375
457	1.11572265625	302.145621237156	0.005650634765625	1.114501953125
458	1.1181640625	302.170021237094	0.00566192626953125	1.11663818359375
459	1.12060546875	302.194421237032	0.00567291259765625	1.119384765625
460	1.123046875	302.218821236971	0.00568359375	1.12213134765625
461	1.12548828125	302.243221236909	0.005694580078125	1.124267578125
462	1.1279296875	302.267621236848	0.00570526123046875	1.12640380859375
463	1.13037109375	302.292021236786	0.0057159423828125	1.129150390625
464	1.1328125	302.316421236724	0.005726318359375	1.13128662109375
465	1.13525390625	302.340821236663	0.00573699951171875	1.1346435546875
466	1.1376953125	302.365221236601	0.00574737548828125	1.13677978515625
467	1.14013671875	302.38962123654	0.00575775146484375	1.13922119140625
468	1.142578125	302.414021236478	0.005767822265625	1.14166259765625
469	1.14501953125	302.438421236416	0.00577789306640625	1.14349365234375
470	1.1474609375	302.462821236355	0.0057879638671875	1.1468505859375
471	1.14990234375	302.487221236293	0.00579803466796875	1.148681640625
472	1.15234375	302.511621236232	0.00580810546875	1.151123046875
473	1.15478515625	302.53602123617	0.00581787109375	1.1541748046875
474	1.1572265625	302.560421236108	0.00582763671875	1.15631103515625
475	1.15966796875	302.584821236047	0.00583740234375	1.158447265625
476	1.162109375	302.609221235985	0.00584716796875	1.160888671875
477	1.16455078125	302.633621235924	0.00585662841796875	1.16363525390625
478	1.1669921875	302.658021235862	0.00586578369140625	1.165771484375
479	1.16943359375	302.6824212358	0.00587554931640625	1.168212890625
480	1.171875	302.706821235739	0.005885009765625	1.17034912109375
481	1.17431640625	302.731221235677	0.0058941650390625	1.17340087890625
482	1.1767578125	302.755621235616	0.00590362548828125	1.1749267578125
483	1.17919921875	302.780021235554	0.00591278076171875	1.17767333984375
484	1.181640625	302.804421235492	0.00592193603515625	1.1810302734375
485	1.18408203125	302.828821235431	0.00593109130859375	1.182861328125
486	1.1865234375	302.853221235369	0.00594024658203125	1.1859130859375
487	1.18896484375	302.877621235308	0.0059490966796875	1.18804931640625
488	1.19140625	302.902021235246	0.005958251953125	1.19049072265625
489	1.19384765625	302.926421235184	0.00596710205078125	1.19232177734375
490	1.1962890625	302.950821235123	0.0059759521484375	1.19537353515625
491	1.19873046875	302.975221235061	0.00598480224609375	1.19781494140625
492	1.201171875	302.999621234999	0.00599334716796875	1.20025634765625
493	1.19873046875	303.024021234938	0.00597808837890625	1.1981201171875
494	1.1962890625	303.048421234876	0.0059625244140625	1.195068359375
495	1.19384765625	303.072821234815	0.00594696044921875	1.19293212890625
496	1.19140625	303.097221234753	0.00593109130859375	1.19049072265625
497	1.18896484375	303.121621234691	0.00591522216796875	1.18804931640625
498	1.1865234375	303.14602123463	0.0058990478515625	1.18560791015625
499	1.18408203125	303.170421234568	0.005882568359375	1.182861328125
500	1.181640625	303.194821234507	0.00586578369140625	1.180419921875
501	1.17919921875	303.219221234445	0.00584930419921875	1.177978515625
502	1.1767578125	303.243621234383	0.00583221435546875	1.1761474609375
503	1.17431640625	303.268021234322	0.00581512451171875	1.17340087890625
504	1.171875	303.29242123426	0.00579742431640625	1.17095947265625
505	1.16943359375	303.316821234199	0.00577972412109375	1.16851806640625
506	1.1669921875	303.341221234137	0.00576202392578125	1.16546630859375
507	1.16455078125	303.365621234075	0.00574371337890625	1.1639404296875
508	1.162109375	303.390021234014	0.00572540283203125	1.160888671875
509	1.15966796875	303.414421233952	0.00570648193359375	1.15875244140625
510	1.1572265625	303.438821233891	0.00568756103515625	1.15631103515625
511	1.15478515625	303.463221233829	0.0056683349609375	1.1541748046875
512	1.15234375	303.487621233767	0.00564849853515625	1.15142822265625
513	1.14990234375	303.512021233706	0.005628662109375	1.148681640625
514	1.1474609375	303.536421233644	0.00560821533203125	1.146240234375
515	1.14501953125	303.560821233583	0.00558746337890625	1.143798828125
516	1.142578125	303.585221233521	0.00556640625	1.14105224609375
517	1.14013671875	303.609621233459	0.0055450439453125	1.13922119140625
518	1.1376953125	303.634021233398	0.0055230712890625	1.136474609375
519	1.13525390625	303.658421233336	0.00550048828125	1.13433837890625
520	1.1328125	303.682821233275	0.0054779052734375	1.13128662109375
521	1.13037109375	303.707221233213	0.0054547119140625	1.129150390625
522	1.1279296875	303.731621233151	0.005430908203125	1.126708984375
523	1.12548828125	303.75602123309	0.00540618896484375	1.124267578125
524	1.123046875	303.780421233028	0.0053814697265625	1.1224365234375
525	1.12060546875	303.804821232967	0.00535614013671875	1.119384765625
526	1.1181640625	303.829221232905	0.00532989501953125	1.116943359375
527	1.11572265625	303.853621232843	0.005302734375	1.1138916015625
528	1.11328125	303.878021232782	0.00527496337890625	1.11236572265625
529	1.11083984375	303.90242123272	0.00524688720703125	1.10992431640625
530	1.1083984375	303.926821232659	0.00521759033203125	1.1077880859375
531	1.10595703125	303.951221232597	0.0051873779296875	1.1053466796875
532	1.103515625	303.975621232535	0.00515594482421875	1.102294921875
533	1.10107421875	304.000021232474	0.00512420654296875	1.099853515625
534	1.0986328125	304.024421232412	0.0050909423828125	1.0968017578125
535	1.09619140625	304.048821232351	0.00505645751953125	1.09527587890625
536	1.09375	304.073221232289	0.00502044677734375	1.09283447265625
537	1.09130859375	304.097621232227	0.00498321533203125	1.09039306640625
538	1.0888671875	304.122021232166	0.00494476318359375	1.0882568359375
539	1.08642578125	304.146421232104	0.0049041748046875	1.085205078125
540	1.083984375	304.170821232042	0.00486175537109375	1.08306884765625
541	1.08154296875	304.195221231981	0.0048175048828125	1.080322265625
542	1.0791015625	304.219621231919	0.00477081298828125	1.077880859375
543	1.07666015625	304.244021231858	0.00472198486328125	1.0760498046875
544	1.07421875	304.268421231796	0.0046697998046875	1.0736083984375
545	1.07177734375	304.292821231734	0.0046148681640625	1.07086181640625
546	1.0693359375	304.317221231673	0.00455657958984375	1.06842041015625
547	1.06689453125	304.341621231611	0.00449554443359375	1.065673828125
548	1.064453125	304.36602123155	0.00443023681640625	1.06353759765625
549	1.06201171875	304.390421231488	0.004361572265625	1.060791015625
550	1.0595703125	304.414821231426	0.0042877197265625	1.05865478515625
551	1.05712890625	304.439221231365	0.00421051025390625	1.055908203125
552	1.0546875	304.463621231303	0.00412994384765625	1.053466796875
553	1.05224609375	304.488021231242	0.00404541015625	1.05072021484375
554	1.0498046875	304.51242123118	0.0039581298828125	1.04888916015625
555	1.04736328125	304.536821231118	0.00386871337890625	1.0467529296875
556	1.044921875	304.561221231057	0.00377838134765625	1.043701171875
557	1.04248046875	304.585621230995	0.0036871337890625	1.04156494140625
558	1.0400390625	304.610021230934	0.0035955810546875	1.03912353515625
559	1.03759765625	304.634421230872	0.0035040283203125	1.036376953125
560	1.03515625	304.65882123081	0.00341339111328125	1.03424072265625
561	1.03271484375	304.683221230749	0.00332489013671875	1.0321044921875
562	1.0302734375	304.707621230687	0.00323699951171875	1.0296630859375
563	1.02783203125	304.732021230626	0.0031500244140625	1.02691650390625
564	1.025390625	304.756421230564	0.00306488037109375	1.024169921875
565	1.02294921875	304.780821230502	0.002982177734375	1.02203369140625
566	1.0205078125	304.805221230441	0.002900390625	1.01959228515625
567	1.01806640625	304.829621230379	0.0028204345703125	1.016845703125
568	1.015625	304.854021230318	0.00274200439453125	1.01409912109375
569	1.01318359375	304.878421230256	0.00266571044921875	1.011962890625
570	1.0107421875	304.902821230194	0.00259185791015625	1.01043701171875
571	1.00830078125	304.927221230133	0.0025189208984375	1.0076904296875
572	1.005859375	304.951621230071	0.00244781494140625	1.004638671875
573	1.00341796875	304.97602123001	0.0023785400390625	1.0028076171875
574	1.0009765625	305.000421229948	0.0023114013671875	0.999755859375
575	0.99853515625	305.024821229886	0.00224609375	0.99700927734375
576	0.99609375	305.049221229825	0.0021820068359375	0.994873046875
577	0.99365234375	305.073621229763	0.0021197509765625	0.992431640625
578	0.9912109375	305.098021229702	0.00205963134765625	0.99029541015625
579	0.98876953125	305.12242122964	0.0020013427734375	0.987548828125
580	0.986328125	305.146821229578	0.00194427490234375	0.98541259765625
581	0.98388671875	305.171221229517	0.0018890380859375	0.982666015625
582	0.9814453125	305.195621229455	0.00183502197265625	0.98052978515625
583	0.97900390625	305.220021229394	0.0017828369140625	0.9783935546875
584	0.9765625	305.244421229332	0.00173187255859375	0.975341796875
585	0.97412109375	305.26882122927	0.00168304443359375	0.9735107421875
586	0.9716796875	305.293221229209	0.00163543701171875	0.97076416015625
587	0.96923828125	305.317621229147	0.00158935546875	0.96832275390625
588	0.966796875	305.342021229086	0.0015447998046875	0.96588134765625
589	0.96435546875	305.366421229024	0.00150177001953125	0.96343994140625
590	0.9619140625	305.390821228962	0.0014599609375	0.9613037109375
591	0.95947265625	305.415221228901	0.0014190673828125	0.9588623046875
592	0.95703125	305.439621228839	0.00138031005859375	0.95611572265625
593	0.95458984375	305.464021228777	0.0013421630859375	0.953369140625
594	0.9521484375	305.488421228716	0.00130584716796875	0.95123291015625
595	0.94970703125	305.512821228654	0.0012701416015625	0.9490966796875
596	0.947265625	305.537221228593	0.00123565673828125	0.9466552734375
597	0.94482421875	305.561621228531	0.00120269775390625	0.943603515625
598	0.9423828125	305.586021228469	0.00117095947265625	0.941162109375
599	0.93994140625	305.610421228408	0.00113983154296875	0.9393310546875
600	0.9375	305.634821228346	0.00110992431640625	0.93719482421875
601	0.93505859375	305.659221228285	0.00108062744140625	0.9344482421875
602	0.9326171875	305.683621228223	0.0010528564453125	0.93109130859375
603	0.93017578125	305.708021228161	0.00102569580078125	0.92926025390625
604	0.927734375	305.7324212281	0.00099945068359375	0.926513671875
605	0.92529296875	305.756821228038	0.00097412109375	0.924072265625
606	0.9228515625	305.781221227977	0.00095001220703125	0.9222412109375
607	0.92041015625	305.805621227915	0.00092620849609375	0.919189453125
608	0.91796875	305.830021227853	0.00090301513671875	0.91705322265625
609	0.91552734375	305.854421227792	0.0008807373046875	0.914306640625
610	0.9130859375	305.87882122773	0.000859375	0.91217041015625
611	0.91064453125	305.903221227669	0.000838623046875	0.90972900390625
612	0.908203125	305.927621227607	0.00081878662109375	0.90728759765625
613	0.90576171875	305.952021227545	0.0007989501953125	0.904541015625
614	0.9033203125	305.976421227484	0.00078033447265625	0.90301513671875
615	0.90087890625	306.000821227422	0.00076202392578125	0.9002685546875
616	0.8984375	306.025221227361	0.00074462890625	0.8978271484375
617	0.89599609375	306.049621227299	0.00072723388671875	0.8953857421875
618	0.8935546875	306.074021227237	0.00071075439453125	0.8929443359375
619	0.89111328125	306.098421227176	0.00069427490234375	0.8905029296875
620	0.888671875	306.122821227114	0.00067901611328125	0.88775634765625
621	0.88623046875	306.147221227053	0.0006634521484375	0.8856201171875
622	0.8837890625	306.171621226991	0.00064849853515625	0.88287353515625
623	0.88134765625	306.196021226929	0.00063446044921875	0.88043212890625
624	0.87890625	306.220421226868	0.00062042236328125	0.87738037109375
625	0.87646484375	306.244821226806	0.0006072998046875	0.87554931640625
626	0.8740234375	306.269221226745	0.0005938720703125	0.872802734375
627	0.87158203125	306.293621226683	0.0005810546875	0.870361328125
628	0.869140625	306.318021226621	0.00056854248046875	0.86822509765625
629	0.86669921875	306.34242122656	0.00055633544921875	0.865478515625
630	0.8642578125	306.366821226498	0.00054473876953125	0.86334228515625
631	0.86181640625	306.391221226437	0.0005328369140625	0.8612060546875
632	0.859375	306.415621226375	0.0005218505859375	0.8587646484375
633	0.85693359375	306.440021226313	0.0005108642578125	0.85662841796875
634	0.8544921875	306.464421226252	0.00050048828125	0.853271484375
635	0.85205078125	306.48882122619	0.00048931884765625	0.85113525390625
636	0.849609375	306.513221226129	0.00047918701171875	0.84869384765625
637	0.84716796875	306.537621226067	0.00046923828125	0.845947265625
638	0.8447265625	306.562021226005	0.0004595947265625	0.84442138671875
639	0.84228515625	306.586421225944	0.000450347900390625	0.84136962890625
640	0.83984375	306.610821225882	0.000441009521484375	0.838623046875
641	0.83740234375	306.63522122582	0.000432037353515625	0.836181640625
642	0.8349609375	306.659621225759	0.000423095703125	0.83404541015625
643	0.83251953125	306.684021225697	0.00041497802734375	0.83160400390625
644	0.830078125	306.708421225636	0.0004063720703125	0.82916259765625
645	0.82763671875	306.732821225574	0.0003980712890625	0.826416015625
646	0.8251953125	306.757221225512	0.00039007568359375	0.8245849609375
647	0.82275390625	306.781621225451	0.000382354736328125	0.82275390625
648	0.8203125	306.806021225389	0.000374481201171875	0.8197021484375
649	0.81787109375	306.830421225328	0.00036688232421875	0.81695556640625
650	0.8154296875	306.854821225266	0.000359649658203125	0.8148193359375
651	0.81298828125	306.879221225204	0.00035211181640625	0.81207275390625
652	0.810546875	306.903621225143	0.00034527587890625	0.8099365234375
653	0.80810546875	306.928021225081	0.000338043212890625	0.80718994140625
654	0.8056640625	306.95242122502	0.000331451416015625	0.8050537109375
655	0.80322265625	306.976821224958	0.000324554443359375	0.80291748046875
656	0.80078125	307.001221224896	0.0003182373046875	0.79986572265625
657	0.79833984375	307.025621224835	0.000311798095703125	0.79742431640625
658	0.7958984375	307.050021224773	0.0003056640625	0.79437255859375
659	0.79345703125	307.074421224712	0.000299713134765625	0.79254150390625
660	0.791015625	307.09882122465	0.000293121337890625	0.7904052734375
661	0.78857421875	307.123221224588	0.000287445068359375	0.7879638671875
662	0.7861328125	307.147621224527	0.000281494140625	0.7855224609375
663	0.78369140625	307.172021224465	0.000275970458984375	0.78338623046875
664	0.78125	307.196421224404	0.000270172119140625	0.7806396484375
665	0.77880859375	307.220821224342	0.0002646484375	0.777587890625
666	0.7763671875	307.24522122428	0.000259307861328125	0.77606201171875
667	0.77392578125	307.269621224219	0.00025384521484375	0.7733154296875
668	0.771484375	307.294021224157	0.000248870849609375	0.770263671875
669	0.76904296875	307.318421224096	0.000243560791015625	0.76873779296875
670	0.7666015625	307.342821224034	0.000238861083984375	0.7659912109375
671	0.76416015625	307.367221223972	0.00023382568359375	0.762939453125
672	0.76171875	307.391621223911	0.000228973388671875	0.7611083984375
673	0.75927734375	307.416021223849	0.000223968505859375	0.758056640625
674	0.7568359375	307.440421223788	0.00021942138671875	0.75592041015625
675	0.75439453125	307.464821223726	0.0002149658203125	0.75347900390625
676	0.751953125	307.489221223664	0.000210418701171875	0.75103759765625
677	0.74951171875	307.513621223603	0.0002061767578125	0.749298095703125
678	0.7470703125	307.538021223541	0.00020147705078125	0.746856689453125
679	0.74462890625	307.56242122348	0.000197662353515625	0.744384765625
680	0.7421875	307.586821223418	0.000193267822265625	0.741912841796875
681	0.73974609375	307.611221223356	0.000189117431640625	0.739532470703125
682	0.7373046875	307.635621223295	0.00018505859375	0.737152099609375
683	0.73486328125	307.660021223233	0.0001812744140625	0.734619140625
684	0.732421875	307.684421223172	0.0001773681640625	0.732177734375
685	0.72998046875	307.70882122311	0.000173004150390625	0.729736328125
686	0.7275390625	307.733221223048	0.00016949462890625	0.727325439453125
687	0.72509765625	307.757621222987	0.000165679931640625	0.72491455078125
688	0.72265625	307.782021222925	0.000162384033203125	0.722412109375
689	0.72021484375	307.806421222863	0.00015869140625	0.720001220703125
690	0.7177734375	307.830821222802	0.00015521240234375	0.717559814453125
691	0.71533203125	307.85522122274	0.00015185546875	0.715118408203125
692	0.712890625	307.879621222679	0.000148284912109375	0.712738037109375
693	0.71044921875	307.904021222617	0.000145050048828125	0.710296630859375
694	0.7080078125	307.928421222555	0.000141632080078125	0.70782470703125
695	0.70556640625	307.952821222494	0.000138885498046875	0.70538330078125
696	0.703125	307.977221222432	0.000135528564453125	0.70294189453125
697	0.70068359375	308.001621222371	0.000132476806640625	0.700469970703125
698	0.6982421875	308.026021222309	0.0001295166015625	0.69805908203125
699	0.69580078125	308.050421222247	0.00012652587890625	0.69561767578125
700	0.693359375	308.074821222186	0.000123687744140625	0.693115234375
701	0.69091796875	308.099221222124	0.000120758056640625	0.690765380859375
702	0.6884765625	308.123621222063	0.0001180419921875	0.688262939453125
703	0.68603515625	308.148021222001	0.00011505126953125	0.6859130859375
704	0.68359375	308.172421221939	0.00011285400390625	0.6834716796875
705	0.68115234375	308.196821221878	0.000109954833984375	0.680999755859375
706	0.6787109375	308.221221221816	0.000107513427734375	0.6785888671875
707	0.67626953125	308.245621221755	0.000105010986328125	0.676177978515625
708	0.673828125	308.270021221693	0.000102325439453125	0.673675537109375
709	0.67138671875	308.294421221631	0.00010028076171875	0.6712646484375
710	0.6689453125	308.31882122157	9.771728515625E-05	0.6688232421875
711	0.66650390625	308.343221221508	9.5550537109375E-05	0.6663818359375
712	0.6640625	308.367621221447	9.295654296875E-05	0.663909912109375
713	0.66162109375	308.392021221385	9.1033935546875E-05	0.66143798828125
714	0.6591796875	308.416421221323	8.8897705078125E-05	0.65899658203125
715	0.65673828125	308.440821221262	8.6639404296875E-05	0.656341552734375
716	0.654296875	308.4652212212	8.4442138671875E-05	0.654022216796875
717	0.65185546875	308.489621221139	8.245849609375E-05	0.651611328125
718	0.6494140625	308.514021221077	8.0596923828125E-05	0.649139404296875
719	0.64697265625	308.538421221015	7.8277587890625E-05	0.646759033203125
720	0.64453125	308.562821220954	7.659912109375E-05	0.644317626953125
721	0.64208984375	308.587221220892	7.4462890625E-05	0.641876220703125
722	0.6396484375	308.611621220831	7.275390625E-05	0.63946533203125
723	0.63720703125	308.636021220769	7.0770263671875E-05	0.636993408203125
724	0.634765625	308.660421220707	6.903076171875E-05	0.63458251953125
725	0.63232421875	308.684821220646	6.732177734375E-05	0.6322021484375
726	0.6298828125	308.709221220584	6.54296875E-05	0.62969970703125
727	0.62744140625	308.733621220523	6.38427734375E-05	0.627227783203125
728	0.625	308.758021220461	6.2103271484375E-05	0.624786376953125
729	0.62255859375	308.782421220399	6.0791015625E-05	0.622344970703125
730	0.6201171875	308.806821220338	5.89599609375E-05	0.61993408203125
731	0.61767578125	308.831221220276	5.74951171875E-05	0.617431640625
732	0.615234375	308.855621220215	5.57861328125E-05	0.61505126953125
733	0.61279296875	308.880021220153	5.4473876953125E-05	0.612640380859375
734	0.6103515625	308.904421220091	5.31005859375E-05	0.610198974609375
735	0.60791015625	308.92882122003	5.157470703125E-05	0.60772705078125
736	0.60546875	308.953221219968	5.0384521484375E-05	0.605255126953125
737	0.60302734375	308.977621219906	4.8779296875E-05	0.6029052734375
738	0.6005859375	309.002021219845	4.771728515625E-05	0.600433349609375
739	0.59814453125	309.026421219783	4.613037109375E-05	0.597991943359375
740	0.595703125	309.050821219722	4.5111083984375E-05	0.595550537109375
741	0.59326171875	309.07522121966	4.35516357421875E-05	0.593109130859375
742	0.5908203125	309.099621219598	4.259033203125E-05	0.5906982421875
743	0.58837890625	309.124021219537	4.14093017578125E-05	0.5882568359375
744	0.5859375	309.148421219475	4.02099609375E-05	0.5858154296875
745	0.58349609375	309.172821219414	3.9324951171875E-05	0.583343505859375
746	0.5810546875	309.197221219352	3.7957763671875E-05	0.580841064453125
747	0.57861328125	309.22162121929	3.70880126953125E-05	0.5784912109375
748	0.576171875	309.246021219229	3.592529296875E-05	0.57598876953125
749	0.57373046875	309.270421219167	3.50067138671875E-05	0.5736083984375
750	0.5712890625	309.294821219106	3.3868408203125E-05	0.571197509765625
751	0.56884765625	309.319221219044	3.3074951171875E-05	0.5687255859375
752	0.56640625	309.343621218982	3.22784423828125E-05	0.566253662109375
753	0.56396484375	309.368021218921	3.104248046875E-05	0.56378173828125
754	0.5615234375	309.392421218859	3.03619384765625E-05	0.56134033203125
755	0.55908203125	309.416821218798	2.91748046875E-05	0.5589599609375
756	0.556640625	309.441221218736	2.8790283203125E-05	0.556549072265625
757	0.55419921875	309.465621218674	2.75543212890625E-05	0.5540771484375
758	0.5517578125	309.490021218613	2.669677734375E-05	0.5516357421875
759	0.54931640625	309.514421218551	2.58544921875E-05	0.5491943359375
760	0.546875	309.53882121849	2.50762939453125E-05	0.5467529296875
761	0.54443359375	309.563221218428	2.4444580078125E-05	0.5443115234375
762	0.5419921875	309.587621218366	2.35748291015625E-05	0.541961669921875
763	0.53955078125	309.612021218305	2.305908203125E-05	0.5394287109375
764	0.537109375	309.636421218243	2.2149658203125E-05	0.5369873046875
765	0.53466796875	309.660821218182	2.17376708984375E-05	0.5345458984375
766	0.5322265625	309.68522121812	2.07550048828125E-05	0.532135009765625
767	0.52978515625	309.709621218058	2.0172119140625E-05	0.52972412109375
768	0.52734375	309.734021217997	1.9573974609375E-05	0.527191162109375
769	0.52490234375	309.758421217935	1.88720703125E-05	0.5247802734375
770	0.5224609375	309.782821217874	1.8646240234375E-05	0.522308349609375
771	0.52001953125	309.807221217812	1.76849365234375E-05	0.51995849609375
772	0.517578125	309.83162121775	1.741943359375E-05	0.5174560546875
773	0.51513671875	309.856021217689	1.65435791015625E-05	0.515106201171875
774	0.5126953125	309.880421217627	1.62567138671875E-05	0.512603759765625
775	0.51025390625	309.904821217566	1.54998779296875E-05	0.51019287109375
776	0.5078125	309.929221217504	1.50909423828125E-05	0.507720947265625
777	0.50537109375	309.953621217442	1.4544677734375E-05	0.505218505859375
778	0.5029296875	309.978021217381	1.40106201171875E-05	0.50286865234375
779	0.50048828125	310.002421217319	1.37451171875E-05	0.500396728515625
780	0.498046875	310.026821217258	1.28631591796875E-05	0.4979248046875
781	0.49560546875	310.051221217196	1.28204345703125E-05	0.49554443359375
782	0.4931640625	310.075621217134	1.20849609375E-05	0.493072509765625
783	0.49072265625	310.100021217073	1.195068359375E-05	0.49066162109375
784	0.48828125	310.124421217011	1.1285400390625E-05	0.48822021484375
785	0.48583984375	310.14882121695	1.094970703125E-05	0.4857177734375
786	0.4833984375	310.173221216888	1.05926513671875E-05	0.483306884765625
787	0.48095703125	310.197621216826	9.9945068359375E-06	0.48089599609375
788	0.478515625	310.222021216765	9.8602294921875E-06	0.47845458984375
789	0.47607421875	310.246421216703	9.11865234375E-06	0.47601318359375
790	0.4736328125	310.270821216641	8.917236328125E-06	0.47357177734375
791	0.47119140625	310.29522121658	8.3587646484375E-06	0.471160888671875
792	0.46875	310.319621216518	8.2672119140625E-06	0.468536376953125
793	0.46630859375	310.344021216457	7.6873779296875E-06	0.466094970703125
794	0.4638671875	310.368421216395	7.3760986328125E-06	0.463714599609375
795	0.46142578125	310.392821216333	7.12890625E-06	0.46124267578125
796	0.458984375	310.417221216272	6.7230224609375E-06	0.4588623046875
797	0.45654296875	310.44162121621	6.494140625E-06	0.45635986328125
798	0.4541015625	310.466021216149	5.975341796875E-06	0.4539794921875
799	0.45166015625	310.490421216087	6.1370849609375E-06	0.451507568359375
800	0.44921875	310.514821216025	5.4229736328125E-06	0.449066162109375
801	0.44677734375	310.539221215964	5.43212890625E-06	0.446624755859375
802	0.4443359375	310.563621215902	5.029296875E-06	0.4442138671875
803	0.44189453125	310.588021215841	4.67529296875E-06	0.441741943359375
804	0.439453125	310.612421215779	4.4696044921875E-06	0.439361572265625
805	0.43701171875	310.636821215717	3.966064453125E-06	0.436920166015625
806	0.4345703125	310.661221215656	4.1265869140625E-06	0.4344482421875
807	0.43212890625	310.685621215594	3.64501953125E-06	0.431976318359375
808	0.4296875	310.710021215533	3.81378173828125E-06	0.4295654296875
809	0.42724609375	310.734421215471	3.304443359375E-06	0.42718505859375
810	0.4248046875	310.758821215409	3.1317138671875E-06	0.424774169921875
811	0.42236328125	310.783221215348	2.8204345703125E-06	0.422332763671875
812	0.419921875	310.807621215286	2.6397705078125E-06	0.41986083984375
813	0.41748046875	310.832021215225	2.43621826171875E-06	0.417449951171875
814	0.4150390625	310.856421215163	1.86309814453125E-06	0.4150390625
815	0.41259765625	310.880821215101	1.9927978515625E-06	0.412567138671875
816	0.41015625	310.90522121504	1.42791748046875E-06	0.41009521484375
817	0.40771484375	310.929621214978	1.56646728515625E-06	0.407684326171875
818	0.4052734375	310.954021214917	1.20697021484375E-06	0.40521240234375
819	0.40283203125	310.978421214855	1.1248779296875E-06	0.40283203125
820	0.400390625	311.002821214793	8.2763671875E-07	0.400360107421875
821	0.39794921875	311.027221214732	5.1239013671875E-07	0.397918701171875
822	0.3955078125	311.05162121467	5.48095703125E-07	0.39544677734375
823	0.39306640625	311.076021214609	7.65380859375001E-08	0.393035888671875
824	0.390625	311.100421214547	2.3150634765625E-07	0.390655517578125
825	0.38818359375	311.124821214485	-3.656005859375E-07	0.387451171875
826	0.3857421875	311.149221214424	-1.536865234375E-07	0.3858642578125
827	0.38330078125	311.173621214362	-5.0537109375E-07	0.38336181640625
828	0.380859375	311.198021214301	-4.803466796875E-07	0.38092041015625
829	0.37841796875	311.222421214239	-6.890869140625E-07	0.37847900390625
830	0.3759765625	311.246821214177	-1.070556640625E-06	0.376129150390625
831	0.37353515625	311.271221214116	-1.0137939453125E-06	0.37371826171875
832	0.37109375	311.295621214054	-1.51763916015625E-06	0.371337890625
833	0.36865234375	311.320021213993	-1.28570556640625E-06	0.368865966796875
834	0.3662109375	311.344421213931	-1.69769287109375E-06	0.366302490234375
835	0.36376953125	311.368821213869	-1.5924072265625E-06	0.363983154296875
836	0.361328125	311.393221213808	-1.87164306640625E-06	0.36151123046875
837	0.35888671875	311.417621213746	-1.91986083984375E-06	0.35919189453125
838	0.3564453125	311.442021213684	-2.1112060546875E-06	0.35675048828125
839	0.35400390625	311.466421213623	-2.349853515625E-06	0.354339599609375
840	0.3515625	311.490821213561	-2.31842041015625E-06	0.35186767578125
841	0.34912109375	311.5152212135	-2.67578125E-06	0.34942626953125
842	0.3466796875	311.539621213438	-2.44842529296875E-06	0.347015380859375
843	0.34423828125	311.564021213376	-2.92022705078125E-06	0.344573974609375
844	0.341796875	311.588421213315	-2.73193359375E-06	0.342254638671875
845	0.33935546875	311.612821213253	-2.94403076171875E-06	0.3397216796875
846	0.3369140625	311.637221213192	-3.02520751953125E-06	0.337371826171875
847	0.33447265625	311.66162121313	-3.03985595703125E-06	0.334503173828125
848	0.33203125	311.686021213068	-3.4112548828125E-06	0.332061767578125
849	0.32958984375	311.710421213007	-3.2757568359375E-06	0.329620361328125
850	0.3271484375	311.734821212945	-3.59954833984375E-06	0.327239990234375
851	0.32470703125	311.759221212884	-3.35296630859375E-06	0.32476806640625
852	0.322265625	311.783621212822	-3.7799072265625E-06	0.322296142578125
853	0.31982421875	311.80802121276	-3.76434326171875E-06	0.31988525390625
854	0.3173828125	311.832421212699	-3.91143798828125E-06	0.317474365234375
855	0.31494140625	311.856821212637	-4.06005859375E-06	0.31500244140625
856	0.3125	311.881221212576	-4.119873046875E-06	0.312591552734375
857	0.31005859375	311.905621212514	-4.4232177734375E-06	0.310089111328125
858	0.3076171875	311.930021212452	-4.1790771484375E-06	0.307647705078125
859	0.30517578125	311.954421212391	-4.6258544921875E-06	0.30523681640625
860	0.302734375	311.978821212329	-4.4183349609375E-06	0.302825927734375
861	0.30029296875	312.003221212268	-4.89501953125E-06	0.300323486328125
862	0.2978515625	312.027621212206	-4.8370361328125E-06	0.297821044921875
863	0.29541015625	312.052021212144	-4.9713134765625E-06	0.29534912109375
864	0.29296875	312.076421212083	-5.0994873046875E-06	0.292999267578125
865	0.29052734375	312.100821212021	-5.0811767578125E-06	0.29052734375
866	0.2880859375	312.12522121196	-5.4534912109375E-06	0.2880859375
867	0.28564453125	312.149621211898	-5.2703857421875E-06	0.28558349609375
868	0.283203125	312.174021211836	-5.6488037109375E-06	0.283233642578125
869	0.28076171875	312.198421211775	-5.5267333984375E-06	0.28076171875
870	0.2783203125	312.222821211713	-5.914306640625E-06	0.278350830078125
871	0.27587890625	312.247221211652	-5.7769775390625E-06	0.27593994140625
872	0.2734375	312.27162121159	-5.8990478515625E-06	0.27337646484375
873	0.27099609375	312.296021211528	-6.0211181640625E-06	0.271026611328125
874	0.2685546875	312.320421211467	-5.8929443359375E-06	0.2685546875
875	0.26611328125	312.344821211405	-6.1676025390625E-06	0.26611328125
876	0.263671875	312.369221211344	-6.0211181640625E-06	0.263702392578125
877	0.26123046875	312.393621211282	-6.4971923828125E-06	0.261322021484375
878	0.2587890625	312.41802121122	-6.256103515625E-06	0.25885009765625
879	0.25634765625	312.442421211159	-6.5765380859375E-06	0.25640869140625
880	0.25390625	312.466821211097	-6.597900390625E-06	0.253997802734375
881	0.25146484375	312.491221211036	-6.6497802734375E-06	0.25152587890625
882	0.2490234375	312.515621210974	-6.8206787109375E-06	0.24908447265625
883	0.24658203125	312.540021210912	-6.73828125E-06	0.24658203125
884	0.244140625	312.564421210851	-7.0587158203125E-06	0.24420166015625
885	0.24169921875	312.588821210789	-6.7901611328125E-06	0.2418212890625
886	0.2392578125	312.613221210727	-7.1075439453125E-06	0.239288330078125
887	0.23681640625	312.637621210666	-6.9305419921875E-06	0.236907958984375
888	0.234375	312.662021210604	-7.32421875E-06	0.234466552734375
889	0.23193359375	312.686421210543	-7.31201171875E-06	0.232025146484375
890	0.2294921875	312.710821210481	-7.4371337890625E-06	0.22955322265625
891	0.22705078125	312.735221210419	-7.6171875E-06	0.227142333984375
892	0.224609375	312.759621210358	-7.5225830078125E-06	0.22467041015625
893	0.22216796875	312.784021210296	-7.9315185546875E-06	0.222259521484375
894	0.2197265625	312.808421210235	-7.623291015625E-06	0.219818115234375
895	0.21728515625	312.832821210173	-8.0718994140625E-06	0.217376708984375
896	0.21484375	312.857221210111	-7.8704833984375E-06	0.214935302734375
897	0.21240234375	312.88162121005	-8.1787109375E-06	0.212493896484375
898	0.2099609375	312.906021209988	-8.258056640625E-06	0.21014404296875
899	0.20751953125	312.930421209927	-8.331298828125E-06	0.207611083984375
900	0.205078125	312.954821209865	-8.526611328125E-06	0.20513916015625
901	0.20263671875	312.979221209803	-8.3343505859375E-06	0.2027587890625
902	0.2001953125	313.003621209742	-8.8165283203125E-06	0.200286865234375
903	0.19775390625	313.02802120968	-8.5205078125E-06	0.1978759765625
904	0.1953125	313.052421209619	-8.795166015625E-06	0.195404052734375
905	0.19287109375	313.076821209557	-8.740234375E-06	0.19305419921875
906	0.1904296875	313.101221209495	-8.9324951171875E-06	0.190521240234375
907	0.18798828125	313.125621209434	-9.051513671875E-06	0.188140869140625
908	0.185546875	313.150021209372	-8.99658203125E-06	0.1856689453125
909	0.18310546875	313.174421209311	-9.228515625E-06	0.183258056640625
910	0.1806640625	313.198821209249	-9.0179443359375E-06	0.180816650390625
911	0.17822265625	313.223221209187	-9.4635009765625E-06	0.178314208984375
912	0.17578125	313.247621209126	-9.19189453125E-06	0.1759033203125
913	0.17333984375	313.272021209064	-9.50927734375E-06	0.1734619140625
914	0.1708984375	313.296421209003	-9.3414306640625E-06	0.17108154296875
915	0.16845703125	313.320821208941	-9.539794921875E-06	0.168609619140625
916	0.166015625	313.345221208879	-9.686279296875E-06	0.166168212890625
917	0.16357421875	313.369621208818	-9.649658203125E-06	0.1636962890625
918	0.1611328125	313.394021208756	-9.912109375E-06	0.161285400390625
919	0.15869140625	313.418421208695	-9.7259521484375E-06	0.15887451171875
920	0.15625	313.442821208633	-1.0174560546875E-05	0.156402587890625
921	0.15380859375	313.467221208571	-9.94873046875E-06	0.15399169921875
922	0.1513671875	313.49162120851	-1.02020263671875E-05	0.15155029296875
923	0.14892578125	313.516021208448	-1.0137939453125E-05	0.149078369140625
924	0.146484375	313.540421208387	-1.02447509765625E-05	0.146697998046875
925	0.14404296875	313.564821208325	-1.0430908203125E-05	0.14422607421875
926	0.1416015625	313.589221208263	-1.0296630859375E-05	0.141754150390625
927	0.13916015625	313.613621208202	-1.06292724609375E-05	0.13934326171875
928	0.13671875	313.63802120814	-1.03912353515625E-05	0.136871337890625
929	0.13427734375	313.662421208079	-1.0858154296875E-05	0.134429931640625
930	0.1318359375	313.686821208017	-1.070556640625E-05	0.13201904296875
931	0.12939453125	313.711221207955	-1.09375E-05	0.1295166015625
932	0.126953125	313.735621207894	-1.092529296875E-05	0.12713623046875
933	0.12451171875	313.760021207832	-1.10870361328125E-05	0.124725341796875
934	0.1220703125	313.78442120777	-1.13250732421875E-05	0.122222900390625
935	0.11962890625	313.808821207709	-1.12030029296875E-05	0.119842529296875
936	0.1171875	313.833221207647	-1.158447265625E-05	0.11737060546875
937	0.11474609375	313.857621207586	-1.12823486328125E-05	0.1148681640625
938	0.1123046875	313.882021207524	-1.1688232421875E-05	0.112457275390625
939	0.10986328125	313.906421207462	-1.15234375E-05	0.11004638671875
940	0.107421875	313.930821207401	-1.17340087890625E-05	0.107574462890625
941	0.10498046875	313.955221207339	-1.1785888671875E-05	0.105194091796875
942	0.1025390625	313.979621207278	-1.1834716796875E-05	0.102752685546875
943	0.10009765625	314.004021207216	-1.20574951171875E-05	0.100311279296875
944	0.09765625	314.028421207154	-1.1859130859375E-05	0.09783935546875
945	0.09521484375	314.052821207093	-1.21856689453125E-05	0.09539794921875
946	0.0927734375	314.077221207031	-1.18743896484375E-05	0.092987060546875
947	0.09033203125	314.10162120697	-1.22650146484375E-05	0.090423583984375
948	0.087890625	314.126021206908	-1.2091064453125E-05	0.088104248046875
949	0.08544921875	314.150421206846	-1.22772216796875E-05	0.08563232421875
950	0.0830078125	314.174821206785	-1.23260498046875E-05	0.083251953125
951	0.08056640625	314.199221206723	-1.2310791015625E-05	0.08074951171875
952	0.078125	314.223621206662	-1.26068115234375E-05	0.0782470703125
953	0.07568359375	314.2480212066	-1.240234375E-05	0.075836181640625
954	0.0732421875	314.272421206538	-1.27410888671875E-05	0.07342529296875
955	0.07080078125	314.296821206477	-1.24725341796875E-05	0.07098388671875
956	0.068359375	314.321221206415	-1.28387451171875E-05	0.068572998046875
957	0.06591796875	314.345621206354	-1.27471923828125E-05	0.06610107421875
958	0.0634765625	314.370021206292	-1.28936767578125E-05	0.063690185546875
959	0.06103515625	314.39442120623	-1.2994384765625E-05	0.061279296875
960	0.05859375	314.418821206169	-1.29425048828125E-05	0.058868408203125
961	0.05615234375	314.443221206107	-1.32965087890625E-05	0.05633544921875
962	0.0537109375	314.467621206046	-1.30523681640625E-05	0.053924560546875
963	0.05126953125	314.492021205984	-1.3446044921875E-05	0.05145263671875
964	0.048828125	314.516421205922	-1.317138671875E-05	0.0489776611328125
965	0.04638671875	314.540821205861	-1.35345458984375E-05	0.046539306640625
966	0.0439453125	314.565221205799	-1.34674072265625E-05	0.0441162109375
967	0.04150390625	314.589621205738	-1.35894775390625E-05	0.0416473388671875
968	0.0390625	314.614021205676	-1.3702392578125E-05	0.0392364501953125
969	0.03662109375	314.638421205614	-1.3623046875E-05	0.0367767333984375
970	0.0341796875	314.662821205553	-1.39556884765625E-05	0.0343353271484375
971	0.03173828125	314.687221205491	-1.3720703125E-05	0.0318878173828125
972	0.029296875	314.71162120543	-1.40899658203125E-05	0.029449462890625
973	0.02685546875	314.736021205368	-1.3818359375E-05	0.027020263671875
974	0.0244140625	314.760421205306	-1.41632080078125E-05	0.0245635986328125
975	0.02197265625	314.784821205245	-1.41143798828125E-05	0.022125244140625
976	0.01953125	314.809221205183	-1.41815185546875E-05	0.01966552734375
977	0.01708984375	314.833621205122	-1.43035888671875E-05	0.0172576904296875
978	0.0146484375	314.85802120506	-1.4190673828125E-05	0.0148040771484375
979	0.01220703125	314.882421204998	-1.455078125E-05	0.0123809814453125
980	0.009765625	314.906821204937	-1.42791748046875E-05	0.0099212646484375
981	0.00732421875	314.931221204875	-1.46270751953125E-05	0.00748596191406251
982	0.0048828125	314.955621204813	-1.43707275390625E-05	0.00505676269531249
983	0.00244140625	314.980021204752	-1.4666748046875E-05	0.002606201171875
984	0	315.00442120469	-1.46575927734375E-05	0.000149536132812503
985	0.00244140625	315.028821204629	-1.45660400390625E-05	0.002581787109375
986	0.0048828125	315.053221204567	-1.458740234375E-05	0.0050506591796875
987	0.00732421875	315.077621204505	-1.43096923828125E-05	0.00750732421875
988	0.009765625	315.102021204444	-1.45599365234375E-05	0.0099212646484375
989	0.01220703125	315.126421204382	-1.41448974609375E-05	0.0123626708984375
990	0.0146484375	315.150821204321	-1.43646240234375E-05	0.01480712890625
991	0.01708984375	315.175221204259	-1.4019775390625E-05	0.0172576904296875
992	0.01953125	315.199621204197	-1.41571044921875E-05	0.0196868896484375
993	0.02197265625	315.224021204136	-1.4056396484375E-05	0.022119140625
