Index	Potential applied (V)	Time (s)	WE(1).Current (A)	WE(1).Potential (V)
1	0.00244140625	6.32493598403107	-1.45751953125E-05	0.00261840820312501
2	0.0048828125	6.34933598396947	-1.45111083984375E-05	0.005047607421875
3	0.00732421875	6.37373598390786	-1.4324951171875E-05	0.00746765136718749
4	0.009765625	6.39813598384626	-1.44073486328125E-05	0.0099365234375
5	0.01220703125	6.42253598378466	-1.4056396484375E-05	0.01236572265625
6	0.0146484375	6.44693598372305	-1.4324951171875E-05	0.01480712890625
7	0.01708984375	6.47133598366145	-1.39068603515625E-05	0.01724853515625
8	0.01953125	6.49573598359984	-1.407470703125E-05	0.0197052001953125
9	0.02197265625	6.52013598353824	-1.37908935546875E-05	0.022119140625
10	0.0244140625	6.54453598347664	-1.3848876953125E-05	0.02459716796875
11	0.02685546875	6.56893598341503	-1.37969970703125E-05	0.026995849609375
12	0.029296875	6.59333598335343	-1.361083984375E-05	0.0294464111328125
13	0.03173828125	6.61773598329182	-1.37054443359375E-05	0.0318939208984375
14	0.0341796875	6.64213598323022	-1.336669921875E-05	0.0343475341796875
15	0.03662109375	6.66653598316861	-1.36444091796875E-05	0.036773681640625
16	0.0390625	6.69093598310701	-1.32354736328125E-05	0.039208984375
17	0.04150390625	6.71533598304541	-1.341552734375E-05	0.041693115234375
18	0.0439453125	6.7397359829838	-1.3153076171875E-05	0.044110107421875
19	0.04638671875	6.7641359829222	-1.32049560546875E-05	0.046563720703125
20	0.048828125	6.78853598286059	-1.31866455078125E-05	0.0489654541015625
21	0.05126953125	6.81293598279899	-1.29852294921875E-05	0.051361083984375
22	0.0537109375	6.83733598273739	-1.31317138671875E-05	0.0538330078125
23	0.05615234375	6.86173598267578	-1.27777099609375E-05	0.05621337890625
24	0.05859375	6.88613598261418	-1.30767822265625E-05	0.05865478515625
25	0.06103515625	6.91053598255257	-1.26617431640625E-05	0.061126708984375
26	0.0634765625	6.93493598249097	-1.28143310546875E-05	0.063568115234375
27	0.06591796875	6.95933598242937	-1.25946044921875E-05	0.0660400390625
28	0.068359375	6.98373598236776	-1.263427734375E-05	0.06842041015625
29	0.07080078125	7.00813598230616	-1.260986328125E-05	0.07086181640625
30	0.0732421875	7.03253598224455	-1.2371826171875E-05	0.0733642578125
31	0.07568359375	7.05693598218295	-1.25274658203125E-05	0.075714111328125
32	0.078125	7.08133598212135	-1.21429443359375E-05	0.0782470703125
33	0.08056640625	7.10573598205974	-1.2384033203125E-05	0.08062744140625
34	0.0830078125	7.13013598199814	-1.19598388671875E-05	0.083099365234375
35	0.08544921875	7.15453598193653	-1.21368408203125E-05	0.0855712890625
36	0.087890625	7.17893598187493	-1.18408203125E-05	0.087921142578125
37	0.09033203125	7.20333598181332	-1.18499755859375E-05	0.090362548828125
38	0.0927734375	7.22773598175172	-1.1798095703125E-05	0.09283447265625
39	0.09521484375	7.25213598169012	-1.16058349609375E-05	0.0953369140625
40	0.09765625	7.27653598162851	-1.17431640625E-05	0.097747802734375
41	0.10009765625	7.30093598156691	-1.13677978515625E-05	0.1002197265625
42	0.1025390625	7.3253359815053	-1.1614990234375E-05	0.1026611328125
43	0.10498046875	7.3497359814437	-1.11907958984375E-05	0.105072021484375
44	0.107421875	7.3741359813821	-1.1358642578125E-05	0.10748291015625
45	0.10986328125	7.39853598132049	-1.11083984375E-05	0.10992431640625
46	0.1123046875	7.42293598125889	-1.11328125E-05	0.1124267578125
47	0.11474609375	7.44733598119728	-1.10870361328125E-05	0.11480712890625
48	0.1171875	7.47173598113568	-1.0809326171875E-05	0.117279052734375
49	0.11962890625	7.49613598107408	-1.09100341796875E-05	0.1197509765625
50	0.1220703125	7.52053598101247	-1.05499267578125E-05	0.122161865234375
51	0.12451171875	7.54493598095087	-1.080322265625E-05	0.12451171875
52	0.126953125	7.56933598088926	-1.038818359375E-05	0.1270751953125
53	0.12939453125	7.59373598082766	-1.05194091796875E-05	0.129486083984375
54	0.1318359375	7.61813598076606	-1.029052734375E-05	0.1319580078125
55	0.13427734375	7.64253598070445	-1.025390625E-05	0.13433837890625
56	0.13671875	7.66693598064285	-1.02996826171875E-05	0.13671875
57	0.13916015625	7.69133598058124	-1.0076904296875E-05	0.13922119140625
58	0.1416015625	7.71573598051964	-1.01531982421875E-05	0.141632080078125
59	0.14404296875	7.74013598045804	-9.7320556640625E-06	0.144073486328125
60	0.146484375	7.76453598039643	-9.991455078125E-06	0.146514892578125
61	0.14892578125	7.78893598033483	-9.625244140625E-06	0.149017333984375
62	0.1513671875	7.81333598027322	-9.7930908203125E-06	0.15142822265625
63	0.15380859375	7.83773598021162	-9.5947265625E-06	0.153900146484375
64	0.15625	7.86213598015001	-9.6038818359375E-06	0.15643310546875
65	0.15869140625	7.88653598008841	-9.6221923828125E-06	0.15875244140625
66	0.1611328125	7.91093598002681	-9.3292236328125E-06	0.1612548828125
67	0.16357421875	7.9353359799652	-9.4268798828125E-06	0.163726806640625
68	0.166015625	7.9597359799036	-9.0179443359375E-06	0.166168212890625
69	0.16845703125	7.98413597984199	-9.3231201171875E-06	0.168609619140625
70	0.1708984375	8.00853597978039	-8.9324951171875E-06	0.1710205078125
71	0.17333984375	8.03293597971879	-9.0576171875E-06	0.173431396484375
72	0.17578125	8.05733597965718	-8.8134765625E-06	0.1759033203125
73	0.17822265625	8.08173597959558	-8.746337890625E-06	0.1783447265625
74	0.1806640625	8.10613597953397	-8.7188720703125E-06	0.180816650390625
75	0.18310546875	8.13053597947237	-8.4503173828125E-06	0.1832275390625
76	0.185546875	8.15493597941077	-8.5418701171875E-06	0.1856689453125
77	0.18798828125	8.17933597934916	-8.184814453125E-06	0.188079833984375
78	0.1904296875	8.20373597928756	-8.514404296875E-06	0.19049072265625
79	0.19287109375	8.22813597922595	-8.062744140625E-06	0.192962646484375
80	0.1953125	8.25253597916435	-8.1939697265625E-06	0.1954345703125
81	0.19775390625	8.27693597910275	-7.891845703125E-06	0.19781494140625
82	0.2001953125	8.30133597904114	-7.9193115234375E-06	0.200286865234375
83	0.20263671875	8.32573597897954	-7.952880859375E-06	0.202728271484375
84	0.205078125	8.35013597891793	-7.5897216796875E-06	0.20513916015625
85	0.20751953125	8.37453597885633	-7.7545166015625E-06	0.207611083984375
86	0.2099609375	8.39893597879473	-7.379150390625E-06	0.2099609375
87	0.21240234375	8.42333597873312	-7.550048828125E-06	0.212554931640625
88	0.21484375	8.44773597867152	-7.257080078125E-06	0.2149658203125
89	0.21728515625	8.47213597860991	-7.366943359375E-06	0.217376708984375
90	0.2197265625	8.49653597854831	-7.061767578125E-06	0.21978759765625
91	0.22216796875	8.5209359784867	-7.14111328125E-06	0.222259521484375
92	0.224609375	8.5453359784251	-7.0648193359375E-06	0.22467041015625
93	0.22705078125	8.5697359783635	-6.8389892578125E-06	0.22711181640625
94	0.2294921875	8.59413597830189	-6.982421875E-06	0.22955322265625
95	0.23193359375	8.61853597824029	-6.4544677734375E-06	0.23199462890625
96	0.234375	8.64293597817868	-6.7596435546875E-06	0.234405517578125
97	0.23681640625	8.66733597811708	-6.353759765625E-06	0.236846923828125
98	0.2392578125	8.69173597805548	-6.43310546875E-06	0.239349365234375
99	0.24169921875	8.71613597799387	-6.2103271484375E-06	0.241790771484375
100	0.244140625	8.74053597793227	-6.18896484375E-06	0.24420166015625
101	0.24658203125	8.76493597787066	-6.16455078125E-06	0.24664306640625
102	0.2490234375	8.78933597780906	-5.8349609375E-06	0.249114990234375
103	0.25146484375	8.81373597774746	-6.0455322265625E-06	0.251495361328125
104	0.25390625	8.83813597768585	-5.621337890625E-06	0.253936767578125
105	0.25634765625	8.86253597762425	-5.87158203125E-06	0.256317138671875
106	0.2587890625	8.88693597756264	-5.3741455078125E-06	0.258819580078125
107	0.26123046875	8.91133597750104	-5.377197265625E-06	0.261260986328125
108	0.263671875	8.93573597743944	-5.1544189453125E-06	0.263702392578125
109	0.26611328125	8.96013597737783	-5.1422119140625E-06	0.266204833984375
110	0.2685546875	8.98453597731623	-5.0384521484375E-06	0.2685546875
111	0.27099609375	9.00893597725462	-4.742431640625E-06	0.27099609375
112	0.2734375	9.03333597719302	-4.913330078125E-06	0.27337646484375
113	0.27587890625	9.05773597713141	-4.45892333984375E-06	0.27587890625
114	0.2783203125	9.08213597706981	-4.6307373046875E-06	0.278350830078125
115	0.28076171875	9.10653597700821	-4.3017578125E-06	0.280853271484375
116	0.283203125	9.1309359769466	-4.54681396484375E-06	0.28326416015625
117	0.28564453125	9.155335976885	-4.24346923828125E-06	0.285736083984375
118	0.2880859375	9.17973597682339	-4.1400146484375E-06	0.288177490234375
119	0.29052734375	9.20413597676179	-4.073486328125E-06	0.29058837890625
120	0.29296875	9.22853597670019	-3.785400390625E-06	0.293060302734375
121	0.29541015625	9.25293597663858	-3.90716552734375E-06	0.295501708984375
122	0.2978515625	9.27733597657698	-3.53912353515625E-06	0.29791259765625
123	0.30029296875	9.30173597651537	-3.6968994140625E-06	0.300323486328125
124	0.302734375	9.32613597645377	-3.40057373046875E-06	0.302764892578125
125	0.30517578125	9.35053597639217	-3.4130859375E-06	0.305206298828125
126	0.3076171875	9.37493597633056	-3.03985595703125E-06	0.307647705078125
127	0.31005859375	9.39933597626896	-2.8875732421875E-06	0.310150146484375
128	0.3125	9.42373597620735	-2.93426513671875E-06	0.312591552734375
129	0.31494140625	9.44813597614575	-2.5927734375E-06	0.314971923828125
130	0.3173828125	9.47253597608415	-2.80853271484375E-06	0.3175048828125
131	0.31982421875	9.49693597602254	-2.3388671875E-06	0.319915771484375
132	0.322265625	9.52133597596094	-2.5579833984375E-06	0.32232666015625
133	0.32470703125	9.54573597589933	-2.11273193359375E-06	0.32470703125
134	0.3271484375	9.57013597583773	-2.076416015625E-06	0.32720947265625
135	0.32958984375	9.59453597577613	-1.80938720703125E-06	0.32965087890625
136	0.33203125	9.61893597571452	-1.74713134765625E-06	0.33209228515625
137	0.33447265625	9.64333597565292	-1.73858642578125E-06	0.33453369140625
138	0.3369140625	9.66773597559131	-1.204833984375E-06	0.336883544921875
139	0.33935546875	9.69213597552971	-1.2738037109375E-06	0.33935546875
140	0.341796875	9.7165359754681	-8.0810546875E-07	0.341827392578125
141	0.34423828125	9.7409359754065	-1.1419677734375E-06	0.344207763671875
142	0.3466796875	9.7653359753449	-6.219482421875E-07	0.346710205078125
143	0.34912109375	9.78973597528329	-6.0516357421875E-07	0.34906005859375
144	0.3515625	9.81413597522169	-2.5054931640625E-07	0.351593017578125
145	0.35400390625	9.83853597516008	-1.45263671875E-07	0.353973388671875
146	0.3564453125	9.86293597509848	-2.188720703125E-07	0.3564453125
147	0.35888671875	9.88733597503688	2.020263671875E-07	0.35888671875
148	0.361328125	9.91173597497527	8.1787109375E-08	0.36126708984375
149	0.36376953125	9.93613597491367	6.1981201171875E-07	0.363677978515625
150	0.3662109375	9.96053597485206	5.0018310546875E-07	0.365997314453125
151	0.36865234375	9.98493597479046	8.9508056640625E-07	0.3685302734375
152	0.37109375	10.0093359747289	9.503173828125E-07	0.37091064453125
153	0.37353515625	10.0337359746673	1.23443603515625E-06	0.373382568359375
154	0.3759765625	10.0581359746056	1.4208984375E-06	0.37579345703125
155	0.37841796875	10.082535974544	1.4544677734375E-06	0.37823486328125
156	0.380859375	10.1069359744824	2.02301025390625E-06	0.38055419921875
157	0.38330078125	10.1313359744208	1.875E-06	0.382904052734375
158	0.3857421875	10.1557359743592	2.54058837890625E-06	0.385284423828125
159	0.38818359375	10.1801359742976	2.44476318359375E-06	0.387542724609375
160	0.390625	10.204535974236	2.9840087890625E-06	0.39007568359375
161	0.39306640625	10.2289359741744	3.17657470703125E-06	0.392364501953125
162	0.3955078125	10.2533359741128	3.40240478515625E-06	0.39544677734375
163	0.39794921875	10.2777359740512	3.67523193359375E-06	0.397918701171875
164	0.400390625	10.3021359739896	3.76373291015625E-06	0.4002685546875
165	0.40283203125	10.326535973928	4.17144775390625E-06	0.402740478515625
166	0.4052734375	10.3509359738664	4.32952880859375E-06	0.405120849609375
167	0.40771484375	10.3753359738048	4.8797607421875E-06	0.40765380859375
168	0.41015625	10.3997359737432	5.2215576171875E-06	0.410064697265625
169	0.41259765625	10.4241359736816	5.535888671875E-06	0.412506103515625
170	0.4150390625	10.44853597362	5.8502197265625E-06	0.414886474609375
171	0.41748046875	10.4729359735584	6.2744140625E-06	0.417388916015625
172	0.419921875	10.4973359734968	6.5032958984375E-06	0.419891357421875
173	0.42236328125	10.5217359734352	6.7413330078125E-06	0.422210693359375
174	0.4248046875	10.5461359733736	7.2235107421875E-06	0.4246826171875
175	0.42724609375	10.570535973312	7.3211669921875E-06	0.427093505859375
176	0.4296875	10.5949359732504	8.1085205078125E-06	0.429534912109375
177	0.43212890625	10.6193359731888	8.1268310546875E-06	0.4320068359375
178	0.4345703125	10.6437359731271	9.039306640625E-06	0.43438720703125
179	0.43701171875	10.6681359730655	9.2559814453125E-06	0.4368896484375
180	0.439453125	10.6925359730039	9.661865234375E-06	0.43927001953125
181	0.44189453125	10.7169359729423	1.01318359375E-05	0.44171142578125
182	0.4443359375	10.7413359728807	1.02447509765625E-05	0.4442138671875
183	0.44677734375	10.7657359728191	1.0858154296875E-05	0.446563720703125
184	0.44921875	10.7901359727575	1.0986328125E-05	0.44903564453125
185	0.45166015625	10.8145359726959	1.1956787109375E-05	0.451446533203125
186	0.4541015625	10.8389359726343	1.21490478515625E-05	0.45391845703125
187	0.45654296875	10.8633359725727	1.2811279296875E-05	0.456329345703125
188	0.458984375	10.8877359725111	1.31988525390625E-05	0.458709716796875
189	0.46142578125	10.9121359724495	1.376953125E-05	0.461151123046875
190	0.4638671875	10.9365359723879	1.4288330078125E-05	0.46356201171875
191	0.46630859375	10.9609359723263	1.47674560546875E-05	0.465972900390625
192	0.46875	10.9853359722647	1.55120849609375E-05	0.46844482421875
193	0.47119140625	11.0097359722031	1.605224609375E-05	0.470855712890625
194	0.4736328125	11.0341359721415	1.68731689453125E-05	0.4732666015625
195	0.47607421875	11.0585359720799	1.737060546875E-05	0.475677490234375
196	0.478515625	11.0829359720183	1.83319091796875E-05	0.478118896484375
197	0.48095703125	11.1073359719567	1.88385009765625E-05	0.480560302734375
198	0.4833984375	11.1317359718951	1.95281982421875E-05	0.483001708984375
199	0.48583984375	11.1561359718335	2.02392578125E-05	0.485443115234375
200	0.48828125	11.1805359717719	2.07794189453125E-05	0.487823486328125
201	0.49072265625	11.2049359717103	2.17864990234375E-05	0.490234375
202	0.4931640625	11.2293359716487	2.24212646484375E-05	0.492645263671875
203	0.49560546875	11.253735971587	2.3529052734375E-05	0.495086669921875
204	0.498046875	11.2781359715254	2.4127197265625E-05	0.497467041015625
205	0.50048828125	11.3025359714638	2.523193359375E-05	0.499908447265625
206	0.5029296875	11.3269359714022	2.60284423828125E-05	0.50238037109375
207	0.50537109375	11.3513359713406	2.706298828125E-05	0.50482177734375
208	0.5078125	11.375735971279	2.83233642578125E-05	0.50714111328125
209	0.51025390625	11.4001359712174	2.9052734375E-05	0.509552001953125
210	0.5126953125	11.4245359711558	3.03680419921875E-05	0.51202392578125
211	0.51513671875	11.4489359710942	3.1243896484375E-05	0.51507568359375
212	0.517578125	11.4733359710326	3.2696533203125E-05	0.5174560546875
213	0.52001953125	11.497735970971	3.3489990234375E-05	0.51983642578125
214	0.5224609375	11.5221359709094	3.50555419921875E-05	0.52239990234375
215	0.52490234375	11.5465359708478	3.6334228515625E-05	0.524749755859375
216	0.52734375	11.5709359707862	3.75335693359375E-05	0.5272216796875
217	0.52978515625	11.5953359707246	3.897705078125E-05	0.529693603515625
218	0.5322265625	11.619735970663	4.0130615234375E-05	0.5321044921875
219	0.53466796875	11.6441359706014	4.183349609375E-05	0.5345458984375
220	0.537109375	11.6685359705398	4.29534912109375E-05	0.5369873046875
221	0.53955078125	11.6929359704782	4.47967529296875E-05	0.539398193359375
222	0.5419921875	11.7173359704166	4.61456298828125E-05	0.54180908203125
223	0.54443359375	11.741735970355	4.81231689453125E-05	0.5443115234375
224	0.546875	11.7661359702934	4.9560546875E-05	0.54669189453125
225	0.54931640625	11.7905359702318	5.1361083984375E-05	0.549163818359375
226	0.5517578125	11.8149359701702	5.3375244140625E-05	0.55157470703125
227	0.55419921875	11.8393359701086	5.5084228515625E-05	0.553985595703125
228	0.556640625	11.8637359700469	5.731201171875E-05	0.5565185546875
229	0.55908203125	11.8881359699853	5.914306640625E-05	0.5589599609375
230	0.5615234375	11.9125359699237	6.1553955078125E-05	0.56134033203125
231	0.56396484375	11.9369359698621	6.329345703125E-05	0.56378173828125
232	0.56640625	11.9613359698005	6.573486328125E-05	0.56622314453125
233	0.56884765625	11.9857359697389	6.7901611328125E-05	0.56866455078125
234	0.5712890625	12.0101359696773	7.0068359375E-05	0.57110595703125
235	0.57373046875	12.0345359696157	7.257080078125E-05	0.57354736328125
236	0.576171875	12.0589359695541	7.4981689453125E-05	0.576019287109375
237	0.57861328125	12.0833359694925	7.7972412109375E-05	0.578399658203125
238	0.5810546875	12.1077359694309	8.0291748046875E-05	0.580810546875
239	0.58349609375	12.1321359693693	8.331298828125E-05	0.58331298828125
240	0.5859375	12.1565359693077	8.6090087890625E-05	0.585723876953125
241	0.58837890625	12.1809359692461	8.9202880859375E-05	0.588134765625
242	0.5908203125	12.2053359691845	9.2041015625E-05	0.590606689453125
243	0.59326171875	12.2297359691229	9.5123291015625E-05	0.593048095703125
244	0.595703125	12.2541359690613	9.8602294921875E-05	0.595489501953125
245	0.59814453125	12.2785359689997	0.000101654052734375	0.597869873046875
246	0.6005859375	12.3029359689381	0.000105560302734375	0.600372314453125
247	0.60302734375	12.3273359688765	0.000108978271484375	0.602783203125
248	0.60546875	12.3517359688149	0.000112884521484375	0.605224609375
249	0.60791015625	12.3761359687533	0.000116455078125	0.607696533203125
250	0.6103515625	12.4005359686917	0.000120574951171875	0.610076904296875
251	0.61279296875	12.4249359686301	0.0001243896484375	0.61248779296875
252	0.615234375	12.4493359685684	0.000128570556640625	0.614898681640625
253	0.61767578125	12.4737359685068	0.000132965087890625	0.6173095703125
254	0.6201171875	12.4981359684452	0.0001373291015625	0.619781494140625
255	0.62255859375	12.5225359683836	0.000141876220703125	0.6221923828125
256	0.625	12.546935968322	0.000146331787109375	0.6246337890625
257	0.62744140625	12.5713359682604	0.000151519775390625	0.6270751953125
258	0.6298828125	12.5957359681988	0.0001563720703125	0.629486083984375
259	0.63232421875	12.6201359681372	0.00016143798828125	0.6319580078125
260	0.634765625	12.6445359680756	0.00016717529296875	0.63427734375
261	0.63720703125	12.668935968014	0.00017242431640625	0.636749267578125
262	0.6396484375	12.6933359679524	0.00017791748046875	0.63922119140625
263	0.64208984375	12.7177359678908	0.000183746337890625	0.64166259765625
264	0.64453125	12.7421359678292	0.00018975830078125	0.644073486328125
265	0.64697265625	12.7665359677676	0.00019586181640625	0.64642333984375
266	0.6494140625	12.790935967706	0.000202392578125	0.64892578125
267	0.65185546875	12.8153359676444	0.000208648681640625	0.651275634765625
268	0.654296875	12.8397359675828	0.0002154541015625	0.653717041015625
269	0.65673828125	12.8641359675212	0.00022222900390625	0.65606689453125
270	0.6591796875	12.8885359674596	0.00022943115234375	0.658477783203125
271	0.66162109375	12.912935967398	0.00023681640625	0.660919189453125
272	0.6640625	12.9373359673364	0.000244140625	0.663421630859375
273	0.66650390625	12.9617359672748	0.000252227783203125	0.66583251953125
274	0.6689453125	12.9861359672132	0.000260223388671875	0.668243408203125
275	0.67138671875	13.0105359671516	0.00026849365234375	0.670654296875
276	0.673828125	13.03493596709	0.000276702880859375	0.67303466796875
277	0.67626953125	13.0593359670283	0.000285614013671875	0.675445556640625
278	0.6787109375	13.0837359669667	0.000294219970703125	0.677886962890625
279	0.68115234375	13.1081359669051	0.000303466796875	0.680328369140625
280	0.68359375	13.1325359668435	0.000313079833984375	0.68341064453125
281	0.68603515625	13.1569359667819	0.000322845458984375	0.68585205078125
282	0.6884765625	13.1813359667203	0.00033270263671875	0.688262939453125
283	0.69091796875	13.2057359666587	0.00034307861328125	0.69073486328125
284	0.693359375	13.2301359665971	0.000353759765625	0.693115234375
285	0.69580078125	13.2545359665355	0.0003642578125	0.695556640625
286	0.6982421875	13.2789359664739	0.000375274658203125	0.697998046875
287	0.70068359375	13.3033359664123	0.000386474609375	0.700408935546875
288	0.703125	13.3277359663507	0.00039825439453125	0.702911376953125
289	0.70556640625	13.3521359662891	0.00041015625	0.705322265625
290	0.7080078125	13.3765359662275	0.00042254638671875	0.707733154296875
291	0.71044921875	13.4009359661659	0.0004349365234375	0.710205078125
292	0.712890625	13.4253359661043	0.000447967529296875	0.712615966796875
293	0.71533203125	13.4497359660427	0.000461395263671875	0.715087890625
294	0.7177734375	13.4741359659811	0.000474700927734375	0.717498779296875
295	0.72021484375	13.4985359659195	0.0004886474609375	0.719970703125
296	0.72265625	13.5229359658579	0.0005029296875	0.722412109375
297	0.72509765625	13.5473359657963	0.00051788330078125	0.724822998046875
298	0.7275390625	13.5717359657347	0.00053253173828125	0.727264404296875
299	0.72998046875	13.5961359656731	0.000548095703125	0.729736328125
300	0.732421875	13.6205359656115	0.0005633544921875	0.732147216796875
301	0.73486328125	13.6449359655498	0.0005792236328125	0.734619140625
302	0.7373046875	13.6693359654882	0.00059600830078125	0.73699951171875
303	0.73974609375	13.6937359654266	0.0006121826171875	0.739471435546875
304	0.7421875	13.718135965365	0.00062957763671875	0.741851806640625
305	0.74462890625	13.7425359653034	0.00064666748046875	0.7442626953125
306	0.7470703125	13.7669359652418	0.0006646728515625	0.746795654296875
307	0.74951171875	13.7913359651802	0.00068267822265625	0.749237060546875
308	0.751953125	13.8157359651186	0.00070159912109375	0.7513427734375
309	0.75439453125	13.840135965057	0.00072021484375	0.75347900390625
310	0.7568359375	13.8645359649954	0.00074005126953125	0.7568359375
311	0.75927734375	13.8889359649338	0.00076019287109375	0.7586669921875
312	0.76171875	13.9133359648722	0.000780029296875	0.76141357421875
313	0.76416015625	13.9377359648106	0.00080108642578125	0.7635498046875
314	0.7666015625	13.962135964749	0.00082183837890625	0.7659912109375
315	0.76904296875	13.9865359646874	0.0008441162109375	0.76873779296875
316	0.771484375	14.0109359646258	0.000865478515625	0.7708740234375
317	0.77392578125	14.0353359645642	0.00088836669921875	0.77301025390625
318	0.7763671875	14.0597359645026	0.00091064453125	0.77484130859375
319	0.77880859375	14.084135964441	0.0009344482421875	0.77789306640625
320	0.78125	14.1085359643794	0.000958251953125	0.78033447265625
321	0.78369140625	14.1329359643178	0.000982666015625	0.78277587890625
322	0.7861328125	14.1573359642562	0.0010076904296875	0.78521728515625
323	0.78857421875	14.1817359641946	0.0010321044921875	0.78765869140625
324	0.791015625	14.206135964133	0.0010589599609375	0.789794921875
325	0.79345703125	14.2305359640714	0.0010845947265625	0.7928466796875
326	0.7958984375	14.2549359640097	0.00111175537109375	0.79498291015625
327	0.79833984375	14.2793359639481	0.00113861083984375	0.797119140625
328	0.80078125	14.3037359638865	0.0011663818359375	0.79986572265625
329	0.80322265625	14.3281359638249	0.0011944580078125	0.802001953125
330	0.8056640625	14.3525359637633	0.00122314453125	0.8050537109375
331	0.80810546875	14.3769359637017	0.00125244140625	0.80780029296875
332	0.810546875	14.4013359636401	0.00128143310546875	0.80963134765625
333	0.81298828125	14.4257359635785	0.00131256103515625	0.81268310546875
334	0.8154296875	14.4501359635169	0.00134246826171875	0.81512451171875
335	0.81787109375	14.4745359634553	0.0013739013671875	0.816650390625
336	0.8203125	14.4989359633937	0.00140472412109375	0.8197021484375
337	0.82275390625	14.5233359633321	0.00143768310546875	0.821533203125
338	0.8251953125	14.5477359632705	0.0014703369140625	0.823974609375
339	0.82763671875	14.5721359632089	0.00150299072265625	0.8270263671875
340	0.830078125	14.5965359631473	0.00153717041015625	0.8294677734375
341	0.83251953125	14.6209359630857	0.00157073974609375	0.8319091796875
342	0.8349609375	14.6453359630241	0.00160614013671875	0.8343505859375
343	0.83740234375	14.6697359629625	0.001640625	0.836181640625
344	0.83984375	14.6941359629009	0.00167694091796875	0.838623046875
345	0.84228515625	14.7185359628393	0.001712646484375	0.841064453125
346	0.8447265625	14.7429359627777	0.00174957275390625	0.8441162109375
347	0.84716796875	14.7673359627161	0.001787109375	0.84686279296875
348	0.849609375	14.7917359626545	0.0018243408203125	0.8489990234375
349	0.85205078125	14.8161359625929	0.0018634033203125	0.85113525390625
350	0.8544921875	14.8405359625312	0.00190155029296875	0.853271484375
351	0.85693359375	14.8649359624696	0.001942138671875	0.855712890625
352	0.859375	14.889335962408	0.00198089599609375	0.8587646484375
353	0.86181640625	14.9137359623464	0.00202301025390625	0.86029052734375
354	0.8642578125	14.9381359622848	0.00206298828125	0.86334228515625
355	0.86669921875	14.9625359622232	0.0021051025390625	0.86578369140625
356	0.869140625	14.9869359621616	0.002147216796875	0.86822509765625
357	0.87158203125	15.0113359621	0.00218963623046875	0.8709716796875
358	0.8740234375	15.0357359620384	0.00223358154296875	0.87310791015625
359	0.87646484375	15.0601359619768	0.00227630615234375	0.875244140625
360	0.87890625	15.0845359619152	0.00232177734375	0.87860107421875
361	0.88134765625	15.1089359618536	0.00236541748046875	0.88043212890625
362	0.8837890625	15.133335961792	0.00241180419921875	0.88287353515625
363	0.88623046875	15.1577359617304	0.0024566650390625	0.885009765625
364	0.888671875	15.1821359616688	0.00250335693359375	0.88836669921875
365	0.89111328125	15.2065359616072	0.00255035400390625	0.89019775390625
366	0.8935546875	15.2309359615456	0.00259765625	0.8917236328125
367	0.89599609375	15.255335961484	0.00264556884765625	0.8953857421875
368	0.8984375	15.2797359614224	0.00269317626953125	0.897216796875
369	0.90087890625	15.3041359613608	0.0027435302734375	0.89996337890625
370	0.9033203125	15.3285359612992	0.00279205322265625	0.90240478515625
371	0.90576171875	15.3529359612376	0.002843017578125	0.90484619140625
372	0.908203125	15.377335961176	0.00289215087890625	0.9075927734375
373	0.91064453125	15.4017359611144	0.00294342041015625	0.91033935546875
374	0.9130859375	15.4261359610528	0.0029949951171875	0.91217041015625
375	0.91552734375	15.4505359609911	0.00304656982421875	0.91522216796875
376	0.91796875	15.4749359609295	0.00309906005859375	0.916748046875
377	0.92041015625	15.4993359608679	0.0031512451171875	0.9197998046875
378	0.9228515625	15.5237359608063	0.00320556640625	0.9222412109375
379	0.92529296875	15.5481359607447	0.0032586669921875	0.9246826171875
380	0.927734375	15.5725359606831	0.00331298828125	0.926513671875
381	0.93017578125	15.5969359606215	0.00336639404296875	0.928955078125
382	0.9326171875	15.6213359605599	0.003421630859375	0.9320068359375
383	0.93505859375	15.6457359604983	0.00347625732421875	0.933837890625
384	0.9375	15.6701359604367	0.0035321044921875	0.936279296875
385	0.93994140625	15.6945359603751	0.003587646484375	0.9393310546875
386	0.9423828125	15.7189359603135	0.00364227294921875	0.94146728515625
387	0.94482421875	15.7433359602519	0.0036981201171875	0.94390869140625
388	0.947265625	15.7677359601903	0.00375213623046875	0.94635009765625
389	0.94970703125	15.7921359601287	0.003807373046875	0.94940185546875
390	0.9521484375	15.8165359600671	0.0038604736328125	0.9515380859375
391	0.95458984375	15.8409359600055	0.00391448974609375	0.953369140625
392	0.95703125	15.8653359599439	0.00396728515625	0.9564208984375
393	0.95947265625	15.8897359598823	0.00401885986328125	0.95855712890625
394	0.9619140625	15.9141359598207	0.00406982421875	0.96099853515625
395	0.96435546875	15.9385359597591	0.00411895751953125	0.96343994140625
396	0.966796875	15.9629359596975	0.0041680908203125	0.9661865234375
397	0.96923828125	15.9873359596359	0.0042144775390625	0.9686279296875
398	0.9716796875	16.0117359595743	0.0042608642578125	0.97015380859375
399	0.97412109375	16.0361359595126	0.00430450439453125	0.972900390625
400	0.9765625	16.060535959451	0.0043475341796875	0.97625732421875
401	0.97900390625	16.0849359593894	0.0043890380859375	0.9783935546875
402	0.9814453125	16.1093359593278	0.0044287109375	0.98052978515625
403	0.98388671875	16.1337359592662	0.00446746826171875	0.9832763671875
404	0.986328125	16.1581359592046	0.00450408935546875	0.98480224609375
405	0.98876953125	16.182535959143	0.0045404052734375	0.98785400390625
406	0.9912109375	16.2069359590814	0.00457489013671875	0.99029541015625
407	0.99365234375	16.2313359590198	0.0046087646484375	0.99212646484375
408	0.99609375	16.2557359589582	0.00464019775390625	0.994873046875
409	0.99853515625	16.2801359588966	0.00467193603515625	0.99761962890625
410	1.0009765625	16.304535958835	0.0047021484375	0.999755859375
411	1.00341796875	16.3289359587734	0.0047314453125	1.0028076171875
412	1.005859375	16.3533359587118	0.004759521484375	1.00494384765625
413	1.00830078125	16.3777359586502	0.00478668212890625	1.00738525390625
414	1.0107421875	16.4021359585886	0.0048138427734375	1.00982666015625
415	1.01318359375	16.426535958527	0.0048394775390625	1.011962890625
416	1.015625	16.4509359584654	0.00486480712890625	1.014404296875
417	1.01806640625	16.4753359584038	0.004888916015625	1.01715087890625
418	1.0205078125	16.4997359583422	0.00491302490234375	1.01959228515625
419	1.02294921875	16.5241359582806	0.00493621826171875	1.021728515625
420	1.025390625	16.548535958219	0.00495880126953125	1.0247802734375
421	1.02783203125	16.5729359581574	0.0049810791015625	1.02691650390625
422	1.0302734375	16.5973359580958	0.00500244140625	1.02935791015625
423	1.03271484375	16.6217359580342	0.0050238037109375	1.031494140625
424	1.03515625	16.6461359579725	0.00504425048828125	1.03424072265625
425	1.03759765625	16.6705359579109	0.00506439208984375	1.03668212890625
426	1.0400390625	16.6949359578493	0.00508392333984375	1.0394287109375
427	1.04248046875	16.7193359577877	0.00510345458984375	1.041259765625
428	1.044921875	16.7437359577261	0.00512237548828125	1.043701171875
429	1.04736328125	16.7681359576645	0.0051409912109375	1.04583740234375
430	1.0498046875	16.7925359576029	0.00515899658203125	1.0491943359375
431	1.05224609375	16.8169359575413	0.005177001953125	1.051025390625
432	1.0546875	16.8413359574797	0.0051947021484375	1.053466796875
433	1.05712890625	16.8657359574181	0.0052117919921875	1.05621337890625
434	1.0595703125	16.8901359573565	0.0052288818359375	1.058349609375
435	1.06201171875	16.9145359572949	0.005245361328125	1.06109619140625
436	1.064453125	16.9389359572333	0.0052618408203125	1.06353759765625
437	1.06689453125	16.9633359571717	0.00527801513671875	1.065673828125
438	1.0693359375	16.9877359571101	0.00529388427734375	1.0687255859375
439	1.07177734375	17.0121359570485	0.0053094482421875	1.0711669921875
440	1.07421875	17.0365359569869	0.00532501220703125	1.07330322265625
441	1.07666015625	17.0609359569253	0.00534027099609375	1.07635498046875
442	1.0791015625	17.0853359568637	0.005355224609375	1.077880859375
443	1.08154296875	17.1097359568021	0.005369873046875	1.080322265625
444	1.083984375	17.1341359567405	0.00538421630859375	1.0833740234375
445	1.08642578125	17.1585359566789	0.00539886474609375	1.08551025390625
446	1.0888671875	17.1829359566173	0.00541290283203125	1.0882568359375
447	1.09130859375	17.2073359565557	0.00542694091796875	1.09039306640625
448	1.09375	17.231735956494	0.005440673828125	1.0931396484375
449	1.09619140625	17.2561359564324	0.00545440673828125	1.094970703125
450	1.0986328125	17.2805359563708	0.00546783447265625	1.097412109375
451	1.10107421875	17.3049359563092	0.00548126220703125	1.10015869140625
452	1.103515625	17.3293359562476	0.005494384765625	1.10260009765625
453	1.10595703125	17.353735956186	0.0055072021484375	1.104736328125
454	1.1083984375	17.3781359561244	0.00552032470703125	1.107177734375
455	1.11083984375	17.4025359560628	0.00553314208984375	1.1102294921875
456	1.11328125	17.4269359560012	0.005545654296875	1.11297607421875
457	1.11572265625	17.4513359559396	0.00555816650390625	1.114501953125
458	1.1181640625	17.475735955878	0.00557037353515625	1.116943359375
459	1.12060546875	17.5001359558164	0.00558258056640625	1.119384765625
460	1.123046875	17.5245359557548	0.00559478759765625	1.12213134765625
461	1.12548828125	17.5489359556932	0.005606689453125	1.12457275390625
462	1.1279296875	17.5733359556316	0.00561859130859375	1.126708984375
463	1.13037109375	17.59773595557	0.00563018798828125	1.129150390625
464	1.1328125	17.6221359555084	0.00564208984375	1.13189697265625
465	1.13525390625	17.6465359554468	0.00565338134765625	1.13433837890625
466	1.1376953125	17.6709359553852	0.00566497802734375	1.13677978515625
467	1.14013671875	17.6953359553236	0.00567626953125	1.13922119140625
468	1.142578125	17.719735955262	0.00568756103515625	1.14166259765625
469	1.14501953125	17.7441359552004	0.0056988525390625	1.1444091796875
470	1.1474609375	17.7685359551388	0.0057098388671875	1.14593505859375
471	1.14990234375	17.7929359550772	0.00572052001953125	1.148681640625
472	1.15234375	17.8173359550156	0.00573150634765625	1.151123046875
473	1.15478515625	17.8417359549539	0.00574249267578125	1.1541748046875
474	1.1572265625	17.8661359548923	0.005753173828125	1.1566162109375
475	1.15966796875	17.8905359548307	0.00576385498046875	1.15936279296875
476	1.162109375	17.9149359547691	0.00577423095703125	1.160888671875
477	1.16455078125	17.9393359547075	0.00578460693359375	1.16363525390625
478	1.1669921875	17.9637359546459	0.00579498291015625	1.16607666015625
479	1.16943359375	17.9881359545843	0.00580535888671875	1.168212890625
480	1.171875	18.0125359545227	0.00581573486328125	1.170654296875
481	1.17431640625	18.0369359544611	0.0058258056640625	1.17279052734375
482	1.1767578125	18.0613359543995	0.005836181640625	1.17584228515625
483	1.17919921875	18.0857359543379	0.005845947265625	1.17767333984375
484	1.181640625	18.1101359542763	0.00585601806640625	1.180419921875
485	1.18408203125	18.1345359542147	0.00586578369140625	1.18316650390625
486	1.1865234375	18.1589359541531	0.00587554931640625	1.18560791015625
487	1.18896484375	18.1833359540915	0.00588531494140625	1.18804931640625
488	1.19140625	18.2077359540299	0.00589508056640625	1.190185546875
489	1.19384765625	18.2321359539683	0.00590484619140625	1.192626953125
490	1.1962890625	18.2565359539067	0.005914306640625	1.19537353515625
491	1.19873046875	18.2809359538451	0.005924072265625	1.19720458984375
492	1.201171875	18.3053359537835	0.00593353271484375	1.20025634765625
493	1.19873046875	18.3297359537219	0.00591766357421875	1.197509765625
494	1.1962890625	18.3541359536603	0.00590179443359375	1.19537353515625
495	1.19384765625	18.3785359535987	0.0058856201171875	1.192626953125
496	1.19140625	18.4029359535371	0.00586944580078125	1.190185546875
497	1.18896484375	18.4273359534754	0.00585296630859375	1.18743896484375
498	1.1865234375	18.4517359534138	0.005836181640625	1.1859130859375
499	1.18408203125	18.4761359533522	0.00581939697265625	1.182861328125
500	1.181640625	18.5005359532906	0.00580230712890625	1.180419921875
501	1.17919921875	18.524935953229	0.00578521728515625	1.177978515625
502	1.1767578125	18.5493359531674	0.00576751708984375	1.1749267578125
503	1.17431640625	18.5737359531058	0.00574981689453125	1.17340087890625
504	1.171875	18.5981359530442	0.0057318115234375	1.170654296875
505	1.16943359375	18.6225359529826	0.0057135009765625	1.16851806640625
506	1.1669921875	18.646935952921	0.0056951904296875	1.165771484375
507	1.16455078125	18.6713359528594	0.00567626953125	1.163330078125
508	1.162109375	18.6957359527978	0.00565704345703125	1.16119384765625
509	1.15966796875	18.7201359527362	0.0056378173828125	1.15875244140625
510	1.1572265625	18.7445359526746	0.00561798095703125	1.15631103515625
511	1.15478515625	18.768935952613	0.00559783935546875	1.1541748046875
512	1.15234375	18.7933359525514	0.005577392578125	1.15081787109375
513	1.14990234375	18.8177359524898	0.005556640625	1.148681640625
514	1.1474609375	18.8421359524282	0.00553558349609375	1.14654541015625
515	1.14501953125	18.8665359523666	0.005513916015625	1.143798828125
516	1.142578125	18.890935952305	0.005491943359375	1.14166259765625
517	1.14013671875	18.9153359522434	0.0054693603515625	1.13922119140625
518	1.1376953125	18.9397359521818	0.00544677734375	1.1370849609375
519	1.13525390625	18.9641359521202	0.00542327880859375	1.134033203125
520	1.1328125	18.9885359520586	0.005399169921875	1.13189697265625
521	1.13037109375	19.012935951997	0.00537445068359375	1.12884521484375
522	1.1279296875	19.0373359519353	0.00534942626953125	1.126708984375
523	1.12548828125	19.0617359518737	0.00532379150390625	1.12396240234375
524	1.123046875	19.0861359518121	0.0052972412109375	1.12152099609375
525	1.12060546875	19.1105359517505	0.0052703857421875	1.119384765625
526	1.1181640625	19.1349359516889	0.00524261474609375	1.116943359375
527	1.11572265625	19.1593359516273	0.00521392822265625	1.114501953125
528	1.11328125	19.1837359515657	0.005184326171875	1.1126708984375
529	1.11083984375	19.2081359515041	0.00515411376953125	1.10992431640625
530	1.1083984375	19.2325359514425	0.0051226806640625	1.10748291015625
531	1.10595703125	19.2569359513809	0.00509033203125	1.10504150390625
532	1.103515625	19.2813359513193	0.0050567626953125	1.10260009765625
533	1.10107421875	19.3057359512577	0.00502227783203125	1.1004638671875
534	1.0986328125	19.3301359511961	0.00498565673828125	1.097412109375
535	1.09619140625	19.3545359511345	0.0049481201171875	1.094970703125
536	1.09375	19.3789359510729	0.0049090576171875	1.092529296875
537	1.09130859375	19.4033359510113	0.00486846923828125	1.090087890625
538	1.0888671875	19.4277359509497	0.004825439453125	1.087646484375
539	1.08642578125	19.4521359508881	0.0047802734375	1.08551025390625
540	1.083984375	19.4765359508265	0.0047332763671875	1.0833740234375
541	1.08154296875	19.5009359507649	0.00468414306640625	1.08062744140625
542	1.0791015625	19.5253359507033	0.00463165283203125	1.0784912109375
543	1.07666015625	19.5497359506417	0.00457611083984375	1.07574462890625
544	1.07421875	19.5741359505801	0.00451751708984375	1.07269287109375
545	1.07177734375	19.5985359505185	0.0044561767578125	1.07086181640625
546	1.0693359375	19.6229359504568	0.0043902587890625	1.068115234375
547	1.06689453125	19.6473359503952	0.0043206787109375	1.0662841796875
548	1.064453125	19.6717359503336	0.00424713134765625	1.063232421875
549	1.06201171875	19.696135950272	0.00417083740234375	1.06109619140625
550	1.0595703125	19.7205359502104	0.00409088134765625	1.0589599609375
551	1.05712890625	19.7449359501488	0.004007568359375	1.05621337890625
552	1.0546875	19.7693359500872	0.00392181396484375	1.0540771484375
553	1.05224609375	19.7937359500256	0.00383453369140625	1.051025390625
554	1.0498046875	19.818135949964	0.00374664306640625	1.04888916015625
555	1.04736328125	19.8425359499024	0.0036578369140625	1.046142578125
556	1.044921875	19.8669359498408	0.00356903076171875	1.04461669921875
557	1.04248046875	19.8913359497792	0.0034808349609375	1.0418701171875
558	1.0400390625	19.9157359497176	0.0033935546875	1.038818359375
559	1.03759765625	19.940135949656	0.0033074951171875	1.03729248046875
560	1.03515625	19.9645359495944	0.00322235107421875	1.03424072265625
561	1.03271484375	19.9889359495328	0.003138427734375	1.03179931640625
562	1.0302734375	20.0133359494712	0.003056640625	1.02935791015625
563	1.02783203125	20.0377359494096	0.0029766845703125	1.026611328125
564	1.025390625	20.062135949348	0.00289764404296875	1.02447509765625
565	1.02294921875	20.0865359492864	0.0028204345703125	1.02264404296875
566	1.0205078125	20.1109359492248	0.00274444580078125	1.01898193359375
567	1.01806640625	20.1353359491632	0.0026708984375	1.01715087890625
568	1.015625	20.1597359491016	0.002598876953125	1.01470947265625
569	1.01318359375	20.18413594904	0.0025286865234375	1.0125732421875
570	1.0107421875	20.2085359489784	0.002459716796875	1.0101318359375
571	1.00830078125	20.2329359489167	0.00239288330078125	1.00738525390625
572	1.005859375	20.2573359488551	0.002327880859375	1.00494384765625
573	1.00341796875	20.2817359487935	0.00226470947265625	1.00250244140625
574	1.0009765625	20.3061359487319	0.0022021484375	1.00006103515625
575	0.99853515625	20.3305359486703	0.00214202880859375	0.99761962890625
576	0.99609375	20.3549359486087	0.002083740234375	0.99517822265625
577	0.99365234375	20.3793359485471	0.00202667236328125	0.992431640625
578	0.9912109375	20.4037359484855	0.00197113037109375	0.9906005859375
579	0.98876953125	20.4281359484239	0.00191741943359375	0.98785400390625
580	0.986328125	20.4525359483623	0.00186492919921875	0.98541259765625
581	0.98388671875	20.4769359483007	0.0018145751953125	0.98358154296875
582	0.9814453125	20.5013359482391	0.00176513671875	0.980224609375
583	0.97900390625	20.5257359481775	0.0017169189453125	0.97808837890625
584	0.9765625	20.5501359481159	0.00167022705078125	0.975341796875
585	0.97412109375	20.5745359480543	0.00162506103515625	0.9735107421875
586	0.9716796875	20.5989359479927	0.0015814208984375	0.9710693359375
587	0.96923828125	20.6233359479311	0.00153900146484375	0.96832275390625
588	0.966796875	20.6477359478695	0.00149749755859375	0.96588134765625
589	0.96435546875	20.6721359478079	0.0014581298828125	0.9637451171875
590	0.9619140625	20.6965359477463	0.00141937255859375	0.9613037109375
591	0.95947265625	20.7209359476847	0.00138214111328125	0.95855712890625
592	0.95703125	20.7453359476231	0.00134552001953125	0.95611572265625
593	0.95458984375	20.7697359475615	0.0013104248046875	0.95367431640625
594	0.9521484375	20.7941359474999	0.00127593994140625	0.95123291015625
595	0.94970703125	20.8185359474382	0.00124359130859375	0.9490966796875
596	0.947265625	20.8429359473766	0.0012115478515625	0.946044921875
597	0.94482421875	20.867335947315	0.00118072509765625	0.94451904296875
598	0.9423828125	20.8917359472534	0.0011505126953125	0.9417724609375
599	0.93994140625	20.9161359471918	0.001121826171875	0.93902587890625
600	0.9375	20.9405359471302	0.00109344482421875	0.93658447265625
601	0.93505859375	20.9649359470686	0.0010662841796875	0.93475341796875
602	0.9326171875	20.989335947007	0.00103973388671875	0.93170166015625
603	0.93017578125	21.0137359469454	0.001014404296875	0.9295654296875
604	0.927734375	21.0381359468838	0.000989990234375	0.9271240234375
605	0.92529296875	21.0625359468222	0.00096588134765625	0.9246826171875
606	0.9228515625	21.0869359467606	0.00094268798828125	0.921630859375
607	0.92041015625	21.111335946699	0.00092010498046875	0.919189453125
608	0.91796875	21.1357359466374	0.00089813232421875	0.916748046875
609	0.91552734375	21.1601359465758	0.0008770751953125	0.9149169921875
610	0.9130859375	21.1845359465142	0.00085662841796875	0.91156005859375
611	0.91064453125	21.2089359464526	0.0008367919921875	0.9100341796875
612	0.908203125	21.233335946391	0.00081756591796875	0.906982421875
613	0.90576171875	21.2577359463294	0.0007989501953125	0.904541015625
614	0.9033203125	21.2821359462678	0.00078094482421875	0.902099609375
615	0.90087890625	21.3065359462062	0.00076324462890625	0.89996337890625
616	0.8984375	21.3309359461446	0.000745849609375	0.8978271484375
617	0.89599609375	21.355335946083	0.0007293701171875	0.894775390625
618	0.8935546875	21.3797359460214	0.0007135009765625	0.89263916015625
619	0.89111328125	21.4041359459598	0.0006976318359375	0.8905029296875
620	0.888671875	21.4285359458981	0.00068206787109375	0.887451171875
621	0.88623046875	21.4529359458365	0.00066741943359375	0.8856201171875
622	0.8837890625	21.4773359457749	0.000653076171875	0.8831787109375
623	0.88134765625	21.5017359457133	0.0006390380859375	0.88104248046875
624	0.87890625	21.5261359456517	0.00062530517578125	0.8782958984375
625	0.87646484375	21.5505359455901	0.00061248779296875	0.8758544921875
626	0.8740234375	21.5749359455285	0.000599365234375	0.87310791015625
627	0.87158203125	21.5993359454669	0.00058685302734375	0.87066650390625
628	0.869140625	21.6237359454053	0.0005743408203125	0.867919921875
629	0.86669921875	21.6481359453437	0.00056243896484375	0.86578369140625
630	0.8642578125	21.6725359452821	0.00055084228515625	0.86334228515625
631	0.86181640625	21.6969359452205	0.00053924560546875	0.8612060546875
632	0.859375	21.7213359451589	0.00052825927734375	0.85845947265625
633	0.85693359375	21.7457359450973	0.000517578125	0.85540771484375
634	0.8544921875	21.7701359450357	0.000506591796875	0.853271484375
635	0.85205078125	21.7945359449741	0.000496002197265625	0.850830078125
636	0.849609375	21.8189359449125	0.00048638916015625	0.84869384765625
637	0.84716796875	21.8433359448509	0.000476165771484375	0.8465576171875
638	0.8447265625	21.8677359447893	0.0004664306640625	0.84381103515625
639	0.84228515625	21.8921359447277	0.000457183837890625	0.84136962890625
640	0.83984375	21.9165359446661	0.000447998046875	0.838623046875
641	0.83740234375	21.9409359446045	0.000439117431640625	0.8367919921875
642	0.8349609375	21.9653359445429	0.000430023193359375	0.833740234375
643	0.83251953125	21.9897359444813	0.000421539306640625	0.8319091796875
644	0.830078125	22.0141359444196	0.0004129638671875	0.828857421875
645	0.82763671875	22.038535944358	0.000405242919921875	0.82672119140625
646	0.8251953125	22.0629359442964	0.000396881103515625	0.823974609375
647	0.82275390625	22.0873359442348	0.000389190673828125	0.821533203125
648	0.8203125	22.1117359441732	0.000381439208984375	0.81939697265625
649	0.81787109375	22.1361359441116	0.00037347412109375	0.81695556640625
650	0.8154296875	22.16053594405	0.000366180419921875	0.81451416015625
651	0.81298828125	22.1849359439884	0.0003590087890625	0.81207275390625
652	0.810546875	22.2093359439268	0.00035223388671875	0.80963134765625
653	0.80810546875	22.2337359438652	0.000344818115234375	0.8074951171875
654	0.8056640625	22.2581359438036	0.000338043212890625	0.8050537109375
655	0.80322265625	22.282535943742	0.00033099365234375	0.8026123046875
656	0.80078125	22.3069359436804	0.000324554443359375	0.79925537109375
657	0.79833984375	22.3313359436188	0.0003177490234375	0.7977294921875
658	0.7958984375	22.3557359435572	0.000311798095703125	0.7952880859375
659	0.79345703125	22.3801359434956	0.0003055419921875	0.792236328125
660	0.791015625	22.404535943434	0.000299285888671875	0.789794921875
661	0.78857421875	22.4289359433724	0.0002935791015625	0.78765869140625
662	0.7861328125	22.4533359433108	0.000287200927734375	0.78521728515625
663	0.78369140625	22.4777359432492	0.000281707763671875	0.78277587890625
664	0.78125	22.5021359431876	0.0002757568359375	0.7806396484375
665	0.77880859375	22.526535943126	0.000271026611328125	0.77850341796875
666	0.7763671875	22.5509359430644	0.000265106201171875	0.7757568359375
667	0.77392578125	22.5753359430028	0.000259735107421875	0.7733154296875
668	0.771484375	22.5997359429412	0.00025439453125	0.771484375
669	0.76904296875	22.6241359428795	0.000249176025390625	0.76873779296875
670	0.7666015625	22.6485359428179	0.000244140625	0.7659912109375
671	0.76416015625	22.6729359427563	0.0002393798828125	0.7635498046875
672	0.76171875	22.6973359426947	0.000234100341796875	0.760498046875
673	0.75927734375	22.7217359426331	0.0002291259765625	0.758056640625
674	0.7568359375	22.7461359425715	0.000224700927734375	0.75653076171875
675	0.75439453125	22.7705359425099	0.000220123291015625	0.75408935546875
676	0.751953125	22.7949359424483	0.000215728759765625	0.7513427734375
677	0.74951171875	22.8193359423867	0.0002109375	0.749237060546875
678	0.7470703125	22.8437359423251	0.00020660400390625	0.746856689453125
679	0.74462890625	22.8681359422635	0.00020263671875	0.744384765625
680	0.7421875	22.8925359422019	0.00019805908203125	0.741912841796875
681	0.73974609375	22.9169359421403	0.00019415283203125	0.73956298828125
682	0.7373046875	22.9413359420787	0.00018975830078125	0.737091064453125
683	0.73486328125	22.9657359420171	0.000185943603515625	0.734649658203125
684	0.732421875	22.9901359419555	0.0001820068359375	0.732269287109375
685	0.72998046875	23.0145359418939	0.000178070068359375	0.729766845703125
686	0.7275390625	23.0389359418323	0.0001741943359375	0.72735595703125
687	0.72509765625	23.0633359417707	0.000170654296875	0.724884033203125
688	0.72265625	23.0877359417091	0.000166961669921875	0.722442626953125
689	0.72021484375	23.1121359416475	0.00016326904296875	0.719970703125
690	0.7177734375	23.1365359415859	0.00015997314453125	0.71759033203125
691	0.71533203125	23.1609359415243	0.0001558837890625	0.71514892578125
692	0.712890625	23.1853359414627	0.00015301513671875	0.71270751953125
693	0.71044921875	23.209735941401	0.0001495361328125	0.71026611328125
694	0.7080078125	23.2341359413394	0.000146453857421875	0.70782470703125
695	0.70556640625	23.2585359412778	0.00014300537109375	0.705352783203125
696	0.703125	23.2829359412162	0.000139801025390625	0.702972412109375
697	0.70068359375	23.3073359411546	0.00013677978515625	0.700469970703125
698	0.6982421875	23.331735941093	0.00013348388671875	0.69805908203125
699	0.69580078125	23.3561359410314	0.000131011962890625	0.6956787109375
700	0.693359375	23.3805359409698	0.00012762451171875	0.69317626953125
701	0.69091796875	23.4049359409082	0.000125213623046875	0.690704345703125
702	0.6884765625	23.4293359408466	0.000122314453125	0.68829345703125
703	0.68603515625	23.453735940785	0.000119476318359375	0.6859130859375
704	0.68359375	23.4781359407234	0.000116668701171875	0.6834716796875
705	0.68115234375	23.5025359406618	0.000113861083984375	0.680999755859375
706	0.6787109375	23.5269359406002	0.00011151123046875	0.6785888671875
707	0.67626953125	23.5513359405386	0.000108642578125	0.676116943359375
708	0.673828125	23.575735940477	0.00010650634765625	0.6737060546875
709	0.67138671875	23.6001359404154	0.00010369873046875	0.6712646484375
710	0.6689453125	23.6245359403538	0.000101226806640625	0.66876220703125
711	0.66650390625	23.6489359402922	9.8907470703125E-05	0.666351318359375
712	0.6640625	23.6733359402306	9.66796875E-05	0.663909912109375
713	0.66162109375	23.697735940169	9.4207763671875E-05	0.6614990234375
714	0.6591796875	23.7221359401074	9.210205078125E-05	0.65899658203125
715	0.65673828125	23.7465359400458	8.990478515625E-05	0.6566162109375
716	0.654296875	23.7709359399842	8.75244140625E-05	0.65399169921875
717	0.65185546875	23.7953359399226	8.563232421875E-05	0.651611328125
718	0.6494140625	23.8197359398609	8.33740234375E-05	0.649200439453125
719	0.64697265625	23.8441359397993	8.1634521484375E-05	0.646728515625
720	0.64453125	23.8685359397377	7.952880859375E-05	0.644287109375
721	0.64208984375	23.8929359396761	7.769775390625E-05	0.641876220703125
722	0.6396484375	23.9173359396145	7.574462890625E-05	0.639495849609375
723	0.63720703125	23.9417359395529	7.38525390625E-05	0.636993408203125
724	0.634765625	23.9661359394913	7.2509765625E-05	0.63458251953125
725	0.63232421875	23.9905359394297	7.04345703125E-05	0.632171630859375
726	0.6298828125	24.0149359393681	6.8603515625E-05	0.62969970703125
727	0.62744140625	24.0393359393065	6.671142578125E-05	0.627166748046875
728	0.625	24.0637359392449	6.512451171875E-05	0.624847412109375
729	0.62255859375	24.0881359391833	6.341552734375E-05	0.622344970703125
730	0.6201171875	24.1125359391217	6.195068359375E-05	0.61993408203125
731	0.61767578125	24.1369359390601	6.0302734375E-05	0.617462158203125
732	0.615234375	24.1613359389985	5.8502197265625E-05	0.615081787109375
733	0.61279296875	24.1857359389369	5.7342529296875E-05	0.61260986328125
734	0.6103515625	24.2101359388753	5.56640625E-05	0.61016845703125
735	0.60791015625	24.2345359388137	5.450439453125E-05	0.607757568359375
736	0.60546875	24.2589359387521	5.279541015625E-05	0.6053466796875
737	0.60302734375	24.2833359386905	5.1788330078125E-05	0.6029052734375
738	0.6005859375	24.3077359386289	4.998779296875E-05	0.6004638671875
739	0.59814453125	24.3321359385673	4.87396240234375E-05	0.597991943359375
740	0.595703125	24.3565359385057	4.73907470703125E-05	0.595550537109375
741	0.59326171875	24.3809359384441	4.60357666015625E-05	0.59307861328125
742	0.5908203125	24.4053359383824	4.50775146484375E-05	0.590667724609375
743	0.58837890625	24.4297359383208	4.3670654296875E-05	0.588226318359375
744	0.5859375	24.4541359382592	4.28741455078125E-05	0.58575439453125
745	0.58349609375	24.4785359381976	4.15618896484375E-05	0.583343505859375
746	0.5810546875	24.502935938136	4.0667724609375E-05	0.580841064453125
747	0.57861328125	24.5273359380744	3.958740234375E-05	0.578399658203125
748	0.576171875	24.5517359380128	3.83941650390625E-05	0.5760498046875
749	0.57373046875	24.5761359379512	3.7286376953125E-05	0.5736083984375
750	0.5712890625	24.6005359378896	3.583984375E-05	0.571136474609375
751	0.56884765625	24.624935937828	3.521728515625E-05	0.56866455078125
752	0.56640625	24.6493359377664	3.4075927734375E-05	0.56622314453125
753	0.56396484375	24.6737359377048	3.33343505859375E-05	0.56378173828125
754	0.5615234375	24.6981359376432	3.20770263671875E-05	0.561370849609375
755	0.55908203125	24.7225359375816	3.1805419921875E-05	0.558929443359375
756	0.556640625	24.74693593752	3.05694580078125E-05	0.5565185546875
757	0.55419921875	24.7713359374584	2.9620361328125E-05	0.554046630859375
758	0.5517578125	24.7957359373968	2.89947509765625E-05	0.551666259765625
759	0.54931640625	24.8201359373352	2.799072265625E-05	0.549224853515625
760	0.546875	24.8445359372736	2.7154541015625E-05	0.546722412109375
761	0.54443359375	24.868935937212	2.6318359375E-05	0.544342041015625
762	0.5419921875	24.8933359371504	2.57110595703125E-05	0.541839599609375
763	0.53955078125	24.9177359370888	2.45880126953125E-05	0.5394287109375
764	0.537109375	24.9421359370272	2.412109375E-05	0.536956787109375
765	0.53466796875	24.9665359369656	2.3309326171875E-05	0.5345458984375
766	0.5322265625	24.990935936904	2.27447509765625E-05	0.53216552734375
767	0.52978515625	25.0153359368423	2.1978759765625E-05	0.529693603515625
768	0.52734375	25.0397359367807	2.12188720703125E-05	0.5272216796875
769	0.52490234375	25.0641359367191	2.0709228515625E-05	0.524749755859375
770	0.5224609375	25.0885359366575	2.00408935546875E-05	0.522308349609375
771	0.52001953125	25.1129359365959	1.9732666015625E-05	0.519989013671875
772	0.517578125	25.1373359365343	1.8804931640625E-05	0.5174560546875
773	0.51513671875	25.1617359364727	1.83135986328125E-05	0.515045166015625
774	0.5126953125	25.1861359364111	1.7718505859375E-05	0.5125732421875
775	0.51025390625	25.2105359363495	1.70318603515625E-05	0.510162353515625
776	0.5078125	25.2349359362879	1.65252685546875E-05	0.50775146484375
777	0.50537109375	25.2593359362263	1.5960693359375E-05	0.5052490234375
778	0.5029296875	25.2837359361647	1.5789794921875E-05	0.5029296875
779	0.50048828125	25.3081359361031	1.4910888671875E-05	0.5003662109375
780	0.498046875	25.3325359360415	1.4697265625E-05	0.498016357421875
781	0.49560546875	25.3569359359799	1.40380859375E-05	0.4954833984375
782	0.4931640625	25.3813359359183	1.36016845703125E-05	0.49310302734375
783	0.49072265625	25.4057359358567	1.31927490234375E-05	0.49066162109375
784	0.48828125	25.4301359357951	1.26739501953125E-05	0.488250732421875
785	0.48583984375	25.4545359357335	1.23870849609375E-05	0.48577880859375
786	0.4833984375	25.4789359356719	1.185302734375E-05	0.4832763671875
787	0.48095703125	25.5033359356103	1.1669921875E-05	0.48089599609375
788	0.478515625	25.5277359355487	1.09100341796875E-05	0.47845458984375
789	0.47607421875	25.5521359354871	1.10107421875E-05	0.47601318359375
790	0.4736328125	25.5765359354255	1.02264404296875E-05	0.473541259765625
791	0.47119140625	25.6009359353639	1.00189208984375E-05	0.47113037109375
792	0.46875	25.6253359353022	9.6710205078125E-06	0.46868896484375
793	0.46630859375	25.6497359352406	9.3048095703125E-06	0.46630859375
794	0.4638671875	25.674135935179	9.14306640625E-06	0.463836669921875
795	0.46142578125	25.6985359351174	8.587646484375E-06	0.46136474609375
796	0.458984375	25.7229359350558	8.4503173828125E-06	0.458953857421875
797	0.45654296875	25.7473359349942	7.7880859375E-06	0.456329345703125
798	0.4541015625	25.7717359349326	7.733154296875E-06	0.453948974609375
799	0.45166015625	25.796135934871	6.9915771484375E-06	0.4515380859375
800	0.44921875	25.8205359348094	6.8756103515625E-06	0.449127197265625
801	0.44677734375	25.8449359347478	6.48193359375E-06	0.44659423828125
802	0.4443359375	25.8693359346862	6.3262939453125E-06	0.4442138671875
803	0.44189453125	25.8937359346246	6.1187744140625E-06	0.44171142578125
804	0.439453125	25.918135934563	5.596923828125E-06	0.439361572265625
805	0.43701171875	25.9425359345014	5.615234375E-06	0.436920166015625
806	0.4345703125	25.9669359344398	5.133056640625E-06	0.434478759765625
807	0.43212890625	25.9913359343782	5.1544189453125E-06	0.432037353515625
808	0.4296875	26.0157359343166	4.41680908203125E-06	0.429595947265625
809	0.42724609375	26.040135934255	4.27764892578125E-06	0.4271240234375
810	0.4248046875	26.0645359341934	4.1680908203125E-06	0.424713134765625
811	0.42236328125	26.0889359341318	3.83453369140625E-06	0.42230224609375
812	0.419921875	26.1133359340702	3.7322998046875E-06	0.419830322265625
813	0.41748046875	26.1377359340086	3.22784423828125E-06	0.417388916015625
814	0.4150390625	26.162135933947	3.3746337890625E-06	0.414947509765625
815	0.41259765625	26.1865359338854	2.86529541015625E-06	0.412506103515625
816	0.41015625	26.2109359338237	2.93182373046875E-06	0.410064697265625
817	0.40771484375	26.2353359337621	2.41180419921875E-06	0.407684326171875
818	0.4052734375	26.2597359337005	2.32574462890625E-06	0.40521240234375
819	0.40283203125	26.2841359336389	2.1112060546875E-06	0.402740478515625
820	0.400390625	26.3085359335773	1.77215576171875E-06	0.400360107421875
821	0.39794921875	26.3329359335157	1.7901611328125E-06	0.397857666015625
822	0.3955078125	26.3573359334541	1.341552734375E-06	0.395477294921875
823	0.39306640625	26.3817359333925	1.33819580078125E-06	0.39300537109375
824	0.390625	26.4061359333309	9.1400146484375E-07	0.39056396484375
825	0.38818359375	26.4305359332693	1.02386474609375E-06	0.388153076171875
826	0.3857421875	26.4549359332077	5.3192138671875E-07	0.3857421875
827	0.38330078125	26.4793359331461	5.0140380859375E-07	0.383270263671875
828	0.380859375	26.5037359330845	3.7200927734375E-07	0.380828857421875
829	0.37841796875	26.5281359330229	1.89727783203125E-07	0.378448486328125
830	0.3759765625	26.5525359329613	1.4892578125E-07	0.376007080078125
831	0.37353515625	26.5769359328997	-4.2236328125E-07	0.373565673828125
832	0.37109375	26.6013359328381	-2.7099609375E-07	0.371185302734375
833	0.36865234375	26.6257359327765	-6.640625E-07	0.36865234375
834	0.3662109375	26.6501359327149	-5.3955078125E-07	0.3663330078125
835	0.36376953125	26.6745359326533	-7.8369140625E-07	0.363922119140625
836	0.361328125	26.6989359325917	-9.4879150390625E-07	0.361480712890625
837	0.35888671875	26.7233359325301	-1.10748291015625E-06	0.358978271484375
838	0.3564453125	26.7477359324685	-1.33941650390625E-06	0.356689453125
839	0.35400390625	26.7721359324069	-1.3897705078125E-06	0.3541259765625
840	0.3515625	26.7965359323453	-1.7987060546875E-06	0.351715087890625
841	0.34912109375	26.8209359322836	-1.55792236328125E-06	0.34930419921875
842	0.3466796875	26.845335932222	-2.09747314453125E-06	0.346893310546875
843	0.34423828125	26.8697359321604	-1.90277099609375E-06	0.34454345703125
844	0.341796875	26.8941359320988	-2.31201171875E-06	0.342041015625
845	0.33935546875	26.9185359320372	-2.286376953125E-06	0.339691162109375
846	0.3369140625	26.9429359319756	-2.42095947265625E-06	0.337188720703125
847	0.33447265625	26.967335931914	-2.6788330078125E-06	0.33489990234375
848	0.33203125	26.9917359318524	-2.5640869140625E-06	0.3323974609375
849	0.32958984375	27.0161359317908	-3.05816650390625E-06	0.329986572265625
850	0.3271484375	27.0405359317292	-2.66845703125E-06	0.327178955078125
851	0.32470703125	27.0649359316676	-3.1976318359375E-06	0.324737548828125
852	0.322265625	27.089335931606	-3.01605224609375E-06	0.32232666015625
853	0.31982421875	27.1137359315444	-3.37005615234375E-06	0.319915771484375
854	0.3173828125	27.1381359314828	-3.504638671875E-06	0.317474365234375
855	0.31494140625	27.1625359314212	-3.66607666015625E-06	0.315032958984375
856	0.3125	27.1869359313596	-3.74786376953125E-06	0.31256103515625
857	0.31005859375	27.211335931298	-3.66363525390625E-06	0.31011962890625
858	0.3076171875	27.2357359312364	-4.0802001953125E-06	0.307708740234375
859	0.30517578125	27.2601359311748	-3.86810302734375E-06	0.305267333984375
860	0.302734375	27.2845359311132	-4.16015625E-06	0.302734375
861	0.30029296875	27.3089359310516	-4.01763916015625E-06	0.300384521484375
862	0.2978515625	27.33333593099	-4.45587158203125E-06	0.2979736328125
863	0.29541015625	27.3577359309284	-4.5880126953125E-06	0.2955322265625
864	0.29296875	27.3821359308668	-4.5220947265625E-06	0.29302978515625
865	0.29052734375	27.4065359308051	-4.815673828125E-06	0.2906494140625
866	0.2880859375	27.4309359307435	-4.718017578125E-06	0.288116455078125
867	0.28564453125	27.4553359306819	-5.0872802734375E-06	0.285675048828125
868	0.283203125	27.4797359306203	-4.9102783203125E-06	0.283233642578125
869	0.28076171875	27.5041359305587	-5.2947998046875E-06	0.280731201171875
870	0.2783203125	27.5285359304971	-5.096435546875E-06	0.278411865234375
871	0.27587890625	27.5529359304355	-5.37109375E-06	0.275970458984375
872	0.2734375	27.5773359303739	-5.499267578125E-06	0.2734375
873	0.27099609375	27.6017359303123	-5.40771484375E-06	0.270965576171875
874	0.2685546875	27.6261359302507	-5.70068359375E-06	0.268524169921875
875	0.26611328125	27.6505359301891	-5.57861328125E-06	0.266082763671875
876	0.263671875	27.6749359301275	-6.1126708984375E-06	0.26373291015625
877	0.26123046875	27.6993359300659	-5.8319091796875E-06	0.26129150390625
878	0.2587890625	27.7237359300043	-6.18896484375E-06	0.2587890625
879	0.25634765625	27.7481359299427	-6.0455322265625E-06	0.256439208984375
880	0.25390625	27.7725359298811	-6.28662109375E-06	0.25396728515625
881	0.25146484375	27.7969359298195	-6.365966796875E-06	0.251495361328125
882	0.2490234375	27.8213359297579	-6.3568115234375E-06	0.249114990234375
883	0.24658203125	27.8457359296963	-6.6253662109375E-06	0.246612548828125
884	0.244140625	27.8701359296347	-6.494140625E-06	0.2442626953125
885	0.24169921875	27.8945359295731	-6.8450927734375E-06	0.241790771484375
886	0.2392578125	27.9189359295115	-6.7169189453125E-06	0.2393798828125
887	0.23681640625	27.9433359294499	-7.0404052734375E-06	0.236907958984375
888	0.234375	27.9677359293883	-6.854248046875E-06	0.234405517578125
889	0.23193359375	27.9921359293267	-7.06787109375E-06	0.23199462890625
890	0.2294921875	28.016535929265	-7.275390625E-06	0.22955322265625
891	0.22705078125	28.0409359292034	-7.2357177734375E-06	0.22711181640625
892	0.224609375	28.0653359291418	-7.4951171875E-06	0.22467041015625
893	0.22216796875	28.0897359290802	-7.3944091796875E-06	0.2222900390625
894	0.2197265625	28.1141359290186	-7.7239990234375E-06	0.2198486328125
895	0.21728515625	28.138535928957	-7.4798583984375E-06	0.2174072265625
896	0.21484375	28.1629359288954	-7.7667236328125E-06	0.2149658203125
897	0.21240234375	28.1873359288338	-7.6873779296875E-06	0.212493896484375
898	0.2099609375	28.2117359287722	-7.952880859375E-06	0.21002197265625
899	0.20751953125	28.2361359287106	-8.06884765625E-06	0.207611083984375
900	0.205078125	28.260535928649	-8.050537109375E-06	0.205108642578125
901	0.20263671875	28.2849359285874	-8.3740234375E-06	0.2027587890625
902	0.2001953125	28.3093359285258	-8.1146240234375E-06	0.2003173828125
903	0.19775390625	28.3337359284642	-8.648681640625E-06	0.1978759765625
904	0.1953125	28.3581359284026	-8.36181640625E-06	0.19537353515625
905	0.19287109375	28.382535928341	-8.660888671875E-06	0.192962646484375
906	0.1904296875	28.4069359282794	-8.587646484375E-06	0.1905517578125
907	0.18798828125	28.4313359282178	-8.7188720703125E-06	0.188079833984375
908	0.185546875	28.4557359281562	-8.9263916015625E-06	0.185638427734375
909	0.18310546875	28.4801359280946	-8.8104248046875E-06	0.18316650390625
910	0.1806640625	28.504535928033	-9.0789794921875E-06	0.180755615234375
911	0.17822265625	28.5289359279714	-8.8623046875E-06	0.178375244140625
912	0.17578125	28.5533359279098	-9.234619140625E-06	0.175872802734375
913	0.17333984375	28.5777359278482	-9.0484619140625E-06	0.1734619140625
914	0.1708984375	28.6021359277865	-9.356689453125E-06	0.171051025390625
915	0.16845703125	28.6265359277249	-9.3170166015625E-06	0.168609619140625
916	0.166015625	28.6509359276633	-9.41162109375E-06	0.1661376953125
917	0.16357421875	28.6753359276017	-9.576416015625E-06	0.163726806640625
918	0.1611328125	28.6997359275401	-9.50927734375E-06	0.16131591796875
919	0.15869140625	28.7241359274785	-9.8541259765625E-06	0.158782958984375
920	0.15625	28.7485359274169	-9.6221923828125E-06	0.156402587890625
921	0.15380859375	28.7729359273553	-1.0076904296875E-05	0.153961181640625
922	0.1513671875	28.7973359272937	-9.8907470703125E-06	0.151519775390625
923	0.14892578125	28.8217359272321	-1.0162353515625E-05	0.14910888671875
924	0.146484375	28.8461359271705	-1.00921630859375E-05	0.146697998046875
925	0.14404296875	28.8705359271089	-1.0247802734375E-05	0.14422607421875
926	0.1416015625	28.8949359270473	-1.04095458984375E-05	0.141754150390625
927	0.13916015625	28.9193359269857	-1.0296630859375E-05	0.139312744140625
928	0.13671875	28.9437359269241	-1.063232421875E-05	0.136871337890625
929	0.13427734375	28.9681359268625	-1.03515625E-05	0.13446044921875
930	0.1318359375	28.9925359268009	-1.07452392578125E-05	0.131988525390625
931	0.12939453125	29.0169359267393	-1.0577392578125E-05	0.129547119140625
932	0.126953125	29.0413359266777	-1.080322265625E-05	0.127105712890625
933	0.12451171875	29.0657359266161	-1.07391357421875E-05	0.124725341796875
934	0.1220703125	29.0901359265545	-1.090087890625E-05	0.122314453125
935	0.11962890625	29.1145359264929	-1.10992431640625E-05	0.11981201171875
936	0.1171875	29.1389359264313	-1.09954833984375E-05	0.117340087890625
937	0.11474609375	29.1633359263697	-1.12945556640625E-05	0.11492919921875
938	0.1123046875	29.1877359263081	-1.102294921875E-05	0.11248779296875
939	0.10986328125	29.2121359262464	-1.14959716796875E-05	0.11004638671875
940	0.107421875	29.2365359261848	-1.131591796875E-05	0.107635498046875
941	0.10498046875	29.2609359261232	-1.1572265625E-05	0.105133056640625
942	0.1025390625	29.2853359260616	-1.15142822265625E-05	0.10272216796875
943	0.10009765625	29.309735926	-1.160888671875E-05	0.100341796875
944	0.09765625	29.3341359259384	-1.18072509765625E-05	0.09783935546875
945	0.09521484375	29.3585359258768	-1.165771484375E-05	0.095428466796875
946	0.0927734375	29.3829359258152	-1.19873046875E-05	0.09295654296875
947	0.09033203125	29.4073359257536	-1.175537109375E-05	0.090545654296875
948	0.087890625	29.431735925692	-1.21856689453125E-05	0.08807373046875
949	0.08544921875	29.4561359256304	-1.1956787109375E-05	0.08563232421875
950	0.0830078125	29.4805359255688	-1.2188720703125E-05	0.08319091796875
951	0.08056640625	29.5049359255072	-1.2176513671875E-05	0.08074951171875
952	0.078125	29.5293359254456	-1.2261962890625E-05	0.078369140625
953	0.07568359375	29.553735925384	-1.24755859375E-05	0.07586669921875
954	0.0732421875	29.5781359253224	-1.2310791015625E-05	0.073394775390625
955	0.07080078125	29.6025359252608	-1.26251220703125E-05	0.071014404296875
956	0.068359375	29.6269359251992	-1.23382568359375E-05	0.068572998046875
957	0.06591796875	29.6513359251376	-1.27471923828125E-05	0.06610107421875
958	0.0634765625	29.675735925076	-1.2548828125E-05	0.063720703125
959	0.06103515625	29.7001359250144	-1.27532958984375E-05	0.06121826171875
960	0.05859375	29.7245359249528	-1.2750244140625E-05	0.058837890625
961	0.05615234375	29.7489359248912	-1.2811279296875E-05	0.056427001953125
962	0.0537109375	29.7733359248296	-1.30462646484375E-05	0.053955078125
963	0.05126953125	29.7977359247679	-1.28814697265625E-05	0.051483154296875
964	0.048828125	29.8221359247063	-1.32110595703125E-05	0.0489776611328125
965	0.04638671875	29.8465359246447	-1.2939453125E-05	0.0465606689453125
966	0.0439453125	29.8709359245831	-1.336669921875E-05	0.04410400390625
967	0.04150390625	29.8953359245215	-1.3201904296875E-05	0.04166259765625
968	0.0390625	29.9197359244599	-1.34185791015625E-05	0.039215087890625
969	0.03662109375	29.9441359243983	-1.34307861328125E-05	0.036785888671875
970	0.0341796875	29.9685359243367	-1.35009765625E-05	0.034375
971	0.03173828125	29.9929359242751	-1.37298583984375E-05	0.0319000244140625
972	0.029296875	30.0173359242135	-1.356201171875E-05	0.0294464111328125
973	0.02685546875	30.0417359241519	-1.3922119140625E-05	0.0270294189453125
974	0.0244140625	30.0661359240903	-1.36627197265625E-05	0.0245849609375
975	0.02197265625	30.0905359240287	-1.4093017578125E-05	0.022125244140625
976	0.01953125	30.1149359239671	-1.39373779296875E-05	0.019683837890625
977	0.01708984375	30.1393359239055	-1.41448974609375E-05	0.01724853515625
978	0.0146484375	30.1637359238439	-1.41693115234375E-05	0.0148223876953125
979	0.01220703125	30.1881359237823	-1.4202880859375E-05	0.0123931884765625
980	0.009765625	30.2125359237207	-1.44622802734375E-05	0.0099456787109375
981	0.00732421875	30.2369359236591	-1.42669677734375E-05	0.00749816894531249
982	0.0048828125	30.2613359235975	-1.46209716796875E-05	0.0050506591796875
983	0.00244140625	30.2857359235359	-1.43402099609375E-05	0.0026275634765625
984	0	30.3101359234743	-1.47369384765625E-05	0.000161743164062506
985	0.00244140625	30.3345359234127	-1.444091796875E-05	0.002606201171875
986	0.0048828125	30.3589359233511	-1.44744873046875E-05	0.0050384521484375
