Index	Time (s)	WE(1).Potential (V)	Corrected time (s)	dWE(1).Potential/dt (V/s)	OCP value (V)
1	31.3738629207886	0.362457275390625	0	0	0.384017345952053
2	31.4738629205361	0.362823486328125	0.0999999997475243	0.00366209540516138	
3	31.5738629202837	0.365753173828125	0.199999999495049	0.0421140976250172	
4	31.6738629200312	0.367095947265625	0.299999999242573	-0.00834143999963999	
5	31.7738629197787	0.3685302734375	0.399999998990097	0.0203958377242088	
6	31.8738629195262	0.37115478515625	0.499999998737621	0.035858016461134	
7	31.9738629192738	0.37176513671875	0.599999998485146	-0.0146483816206455	
8	32.0738629190213	0.37060546875	0.69999999823267	-0.019632900133729	
9	32.1738629187688	0.37109375	0.799999997980194	0.0245156940072775	
10	32.2738629185163	0.371917724609375	0.899999997727718	0.00554400542750955	
11	32.3738629182639	0.371612548828125	0.999999997475243	-0.0135802701115608	
12	32.4738629180114	0.3726806640625	1.09999999722277	0.025888979434967	
13	32.5738629177589	0.371246337890625	1.19999999697029	-0.0397744253277779	
14	32.6738629175064	0.3743896484375	1.29999999671782	0.0779212489724159	
15	32.773862917254	0.374420166015625	1.39999999646534	-0.0408933982253075	
16	32.8738629170015	0.371826171875	1.49999999621286	-0.0374347530305386	
17	32.973862916749	0.370391845703125	1.59999999596039	0.00406899489462376	
18	33.0738629164965	0.3721923828125	1.69999999570791	0.0410968475043774	
19	33.173862916244	0.371734619140625	1.79999999545544	-0.0341795571148396	
20	33.2738629159916	0.372314453125	1.89999999520296	0.0219725724309683	
21	33.3738629157391	0.374298095703125	1.99999999495049	0.0280760657042265	
22	33.4738629154866	0.373779296875	2.09999999469801	-0.0307209119200706	
23	33.5738629152341	0.374786376953125	2.19999999444553	0.0311278104782104	
24	33.6738629149817	0.373992919921875	2.29999999419306	-0.0280252024531364	
25	33.7738629147292	0.374267578125	2.39999999394058	0.0176492650061846	
26	33.8738629144767	0.372955322265625	2.49999999368811	-0.0299071129411459	
27	33.9738629142242	0.37396240234375	2.59999999343563	0.0346881821751595	
28	34.0738629139718	0.374664306640625	2.69999999318316	-0.00325519591569901	
29	34.1738629137193	0.374267578125	2.79999999293068	-0.0121052600443363	
30	34.2738629134668	0.376129150390625	2.8999999926782	0.0410968475043774	
31	34.3738629132143	0.3751220703125	2.99999999242573	-0.0415037497878075	
32	34.4738629129619	0.376922607421875	3.09999999217325	0.0509641617536545	
33	34.5738629127094	0.377227783203125	3.19999999192078	-0.0187682397663593	
34	34.6738629124569	0.377410888671875	3.2999999916683	0.0057983179576695	
35	34.7738629122044	0.378204345703125	3.39999999141583	0.0134276831522584	
36	34.873862911952	0.378143310546875	3.49999999116335	-0.00976558774709702	
37	34.9738629116995	0.3770751953125	3.59999999091087	-0.016225116327405	
38	35.073862911447	0.37713623046875	3.6999999906584	0.0133768208324909	
39	35.1738629111945	0.379791259765625	3.79999999040592	0.0444029085338116	
40	35.2738629109421	0.378143310546875	3.89999999015345	-0.0609840601682663	
41	35.3738629106896	0.378692626953125	3.99999998990097	0.0381468273699284	
42	35.4738629104371	0.379150390625	4.0999999896485	-0.00350950821302831	
43	35.5738629101846	0.377960205078125	4.19999998939602	-0.0253294929862022	
44	35.6738629099322	0.379608154296875	4.29999998914354	0.045623604208231	
45	35.7738629096797	0.378662109375	4.39999998889107	-0.0405373610556126	
46	35.8738629094272	0.37811279296875	4.49999998863859	0.00645952951163054	
47	35.9738629091747	0.37890625	4.59999998838612	0.0178018528968096	
48	36.0738629089223	0.378082275390625	4.69999998813364	-0.026194155216217	
49	36.1738629086698	0.379852294921875	4.79999998788116	0.0447080805897713	
50	36.2738629084173	0.38031005859375	4.89999998762869	-0.0150044187903404	
51	36.3738629081648	0.379608154296875	4.99999998737621	-0.0123087093234062	
52	36.4738629079123	0.380157470703125	5.09999998712374	0.019785488024354	
53	36.5738629076599	0.380523681640625	5.19999998687126	-0.00203449744731188	
54	36.6738629074074	0.381500244140625	5.29999998661879	0.0154621805995703	
55	36.7738629071549	0.380584716796875	5.39999998636631	-0.0269570909440517	
56	36.8738629069024	0.379547119140625	5.49999998611383	-0.0050862436182797	
57	36.97386290665	0.37908935546875	5.59999998586136	0.00066121167037636	
58	37.0738629063975	0.379913330078125	5.69999998560888	0.0169880539178848	
59	37.173862906145	0.37872314453125	5.79999998535641	-0.0329588577151299	
60	37.2738629058925	0.379852294921875	5.89999998510393	0.0373330265283585	
61	37.3738629056401	0.37677001953125	5.99999998485146	-0.0736488103866577	
62	37.4738629053876	0.378448486328125	6.09999998459898	0.0704953372478485	
63	37.5738629051351	0.37506103515625	6.1999999843465	-0.0919592827558517	
64	37.6738629048826	0.3775634765625	6.29999998409403	0.0909928977489471	
65	37.7738629046302	0.376861572265625	6.39999998384155	-0.0533546954393387	
66	37.8738629043777	0.3773193359375	6.49999998358908	0.0249225944280624	
67	37.9738629041252	0.3785400390625	6.5999999833366	0.014699243940413	
68	38.0738629038727	0.375091552734375	6.69999998308413	-0.0759376138448715	
69	38.1738629036203	0.375274658203125	6.79999998283165	0.0476581044495106	
70	38.2738629033678	0.375213623046875	6.89999998257917	-0.0147501062601805	
71	38.3738629031153	0.37396240234375	6.9999999823267	-0.0216165352612734	
72	38.4738629028628	0.37701416015625	7.09999998207422	0.0703427493572235	
73	38.5738629026104	0.375244140625	7.19999998182175	-0.0722246617078781	
74	38.6738629023579	0.3763427734375	7.29999998156927	0.0509641617536545	
75	38.7738629021054	0.377838134765625	7.3999999813168	0.00869747623801231	
76	38.8738629018529	0.377838134765625	7.49999998106432	-0.0137837203219533	
77	38.9738629016005	0.376373291015625	7.59999998081184	-0.0218708477914333	
78	39.073862901348	0.37725830078125	7.69999998055937	0.0333148948848248	
79	39.1738629010955	0.37786865234375	7.79999998030689	-0.00401813257485628	
80	39.273862900843	0.37774658203125	7.89999998005442	-0.00640866719186306	
81	39.3738629005906	0.380096435546875	7.99999997980194	0.0465391278266907	
82	39.4738629003381	0.378875732421875	8.09999997954947	-0.0502012260258198	
83	39.5738629000856	0.379119873046875	8.19999997929699	0.0265501923859119	
84	39.6738628998331	0.37811279296875	8.29999997904451	-0.0253803562372923	
85	39.7738628995806	0.380157470703125	8.39999997879204	0.0500486381351948	
86	39.8738628993282	0.3800048828125	8.49999997853956	-0.0300088375806808	
87	39.9738628990757	0.380462646484375	8.59999997828709	0.0169880539178848	
88	40.0738628988232	0.381256103515625	8.69999997803461	0.00869747623801231	
89	40.1738628985707	0.381866455078125	8.79999997778214	0.00345864566043019	
90	40.2738628983183	0.382080078125	8.89999997752966	-0.000559486798010767	
91	40.3738628980658	0.38043212890625	8.99999997727718	-0.0306700486689806	
92	40.4738628978133	0.38018798828125	9.09999997702471	0.0154621805995703	
93	40.5738628975608	0.382476806640625	9.19999997677223	0.0393166616559029	
94	40.6738628973084	0.381317138671875	9.29999997651976	-0.0487770773470402	
95	40.7738628970559	0.382110595703125	9.39999997626728	0.035705428570509	
96	40.8738628968034	0.3824462890625	9.49999997601481	-0.00696815364062786	
97	40.9738628965509	0.38348388671875	9.59999997576233	0.0177509896457195	
98	41.0738628962985	0.382476806640625	9.69999997550985	-0.029449351131916	
99	41.173862896046	0.383209228515625	9.79999997525738	0.0286355521529913	
100	41.2738628957935	0.38116455078125	9.8999999750049	-0.0493874251842499	
101	41.373862895541	0.3819580078125	9.99999997475243	0.0408425368368626	
102	41.4738628952886	0.380889892578125	10.0999999745	-0.0356545671820641	
103	41.5738628950361	0.381561279296875	10.1999999742475	0.0274148527532816	
104	41.6738628947836	0.380126953125	10.299999973995	-0.0376890636980534	
105	41.7738628945311	0.383819580078125	10.3999999737425	0.0866695940494537	
106	41.8738628942787	0.38189697265625	10.49999997349	-0.0831092223525047	
107	41.9738628940262	0.381500244140625	10.5999999732376	0.0274657160043716	
108	42.0738628937737	0.38201904296875	10.6999999729851	0.00773109029978514	
109	42.1738628935212	0.383636474609375	10.7999999727326	0.0222777463495731	
110	42.2738628932688	0.3828125	10.8999999724801	-0.0322467833757401	
111	42.3738628930163	0.381103515625	10.9999999722277	-0.0163268428295851	
112	42.4738628927638	0.3824462890625	11.0999999719752	0.0418089218437672	
113	42.5738628925113	0.3804931640625	11.1999999717227	-0.0571693778038025	
114	42.6738628922589	0.381317138671875	11.2999999714702	0.042368408292532	
115	42.7738628920064	0.380645751953125	11.3999999712178	-0.0284321010112762	
116	42.8738628917539	0.38238525390625	11.4999999709653	0.0424701347947121	
117	42.9738628915014	0.381439208984375	11.5999999707128	-0.039876151829958	
118	43.073862891249	0.380218505859375	11.6999999704603	-0.00554400542750955	
119	43.1738628909965	0.381500244140625	11.7999999702079	0.0345864556729794	
120	43.273862890744	0.381439208984375	11.8999999699554	-0.0201415251940489	
121	43.3738628904915	0.380218505859375	11.9999999697029	-0.0173949524760246	
122	43.473862890239	0.37762451171875	12.0999999694504	-0.0335183441638947	
123	43.5738628899866	0.38116455078125	12.199999969198	0.0910946205258369	
124	43.6738628897341	0.380401611328125	12.2999999689455	-0.0639340803027153	
125	43.7738628894816	0.380706787109375	12.399999968693	0.026295879855752	
126	43.8738628892291	0.38079833984375	12.4999999684405	-0.00442503206431866	
127	43.9738628889767	0.381500244140625	12.5999999681881	0.0128173343837261	
128	44.0738628887242	0.3797607421875	12.6999999679356	-0.0397744253277779	
129	44.1738628884717	0.380035400390625	12.7999999676831	0.0276691652834415	
130	44.2738628882192	0.3804931640625	12.8999999674306	-0.000610349234193563	
131	44.3738628879668	0.38134765625	12.9999999671782	0.0112405987456441	
132	44.4738628877143	0.38201904296875	13.0999999669257	0.00386554514989257	
133	44.5738628874618	0.381866455078125	13.1999999666732	-0.00778195261955261	
134	44.6738628872093	0.3809814453125	13.2999999664207	-0.0122069846838713	
135	44.7738628869569	0.38201904296875	13.3999999661683	0.0288390014320612	
136	44.8738628867044	0.382232666015625	13.4999999659158	-0.0111388731747866	
137	44.9738628864519	0.382232666015625	13.5999999656633	0.000966386287473142	
138	45.0738628861994	0.380279541015625	13.6999999654108	-0.0350950807332993	
139	45.173862885947	0.379364013671875	13.7999999651583	0.00600176770240068	
140	45.2738628856945	0.380859375	13.8999999649059	0.0315855741500854	
141	45.373862885442	0.3800048828125	13.9999999646534	-0.036163192242384	
142	45.4738628851895	0.37982177734375	14.0999999644009	0.011596635915339	
143	45.5738628849371	0.382232666015625	14.1999999641484	0.0434873811900616	
144	45.6738628846846	0.383087158203125	14.299999963896	-0.0130716459825635	
145	45.7738628844321	0.38104248046875	14.3999999636435	-0.039418388158083	
146	45.8738628841796	0.383331298828125	14.499999963391	0.0686642900109291	
147	45.9738628839272	0.381591796875	14.5999999631385	-0.0654090940952301	
148	46.0738628836747	0.3828125	14.6999999628861	0.0503029488027096	
149	46.1738628834222	0.38104248046875	14.7999999626336	-0.0524900332093239	
150	46.2738628831697	0.3804931640625	14.8999999623811	0.0146483816206455	
151	46.3738628829173	0.37994384765625	14.9999999621286	-0.00956213846802711	
152	46.4738628826648	0.380035400390625	15.0999999618762	0.00625607976689935	
153	46.5738628824123	0.3790283203125	15.1999999616237	-0.0213622227311134	
154	46.6738628821598	0.37957763671875	15.2999999613712	0.0221251603215933	
155	46.7738628819073	0.379638671875	15.3999999611187	-0.00864661391824484	
156	46.8738628816549	0.37738037109375	15.4999999608663	-0.0402830503880978	
157	46.9738628814024	0.377410888671875	15.5999999606138	0.0271096788346767	
158	47.0738628811499	0.378173828125	15.6999999603613	0.00610349234193563	
159	47.1738628808974	0.37835693359375	15.7999999601088	-0.0054422807879746	
160	47.273862880645	0.3775634765625	15.8999999598564	-0.0141397574916482	
161	47.3738628803925	0.376220703125	15.9999999596039	-0.0147501062601805	
162	47.47386288014	0.37835693359375	16.0999999593514	0.0521848611533642	
163	47.5738628798875	0.378662109375	16.1999999590989	-0.0238036196678877	
164	47.6738628796351	0.37841796875	16.2999999588465	-0.000915523851290345	
165	47.7738628793826	0.37860107421875	16.399999958594	0.00722246617078781	
166	47.8738628791301	0.37921142578125	16.4999999583415	0.00823971442878246	
167	47.9738628788776	0.377410888671875	16.599999958089	-0.0395201146602631	
168	48.0738628786252	0.37841796875	16.6999999578366	0.0415037497878075	
169	48.1738628783727	0.37872314453125	16.7999999575841	-0.0121561223641038	
170	48.2738628781202	0.37738037109375	16.8999999573316	-0.0248208697885275	
171	48.3738628778677	0.376861572265625	16.9999999570791	0.00717160338535905	
172	48.4738628776153	0.377838134765625	17.0999999568267	0.019480312243104	
173	48.5738628773628	0.376739501953125	17.1999999565742	-0.0332640334963799	
174	48.6738628771103	0.376434326171875	17.2999999563217	0.0104776620864868	
175	48.7738628768578	0.376739501953125	17.3999999560692	0.00549314310774207	
176	48.8738628766054	0.37652587890625	17.4999999558167	-0.00849402695894241	
177	48.9738628763529	0.377227783203125	17.5999999555643	0.01637770421803	
178	49.0738628761004	0.37786865234375	17.6999999553118	0.00284829642623663	
179	49.1738628758479	0.37786865234375	17.7999999550593	-0.00513710593804717	
180	49.2738628755955	0.3770751953125	17.8999999548068	-0.0124104348942637	
181	49.373862875343	0.376861572265625	17.9999999545544	0.00534055568277836	
182	49.4738628750905	0.3751220703125	18.0999999543019	-0.0320433340966702	
183	49.573862874838	0.37646484375	18.1999999540494	0.0441994555294514	
184	49.6738628745856	0.37908935546875	18.2999999537969	0.0266519170254469	
185	49.7738628743331	0.3798828125	18.3999999535445	-0.011596635915339	
186	49.8738628740806	0.379364013671875	18.499999953292	-0.010019900277257	
187	49.9738628738281	0.3779296875	18.5999999530395	-0.0175984036177397	
188	50.0738628735756	0.379638671875	18.699999952787	0.0463356785476208	
189	50.1738628733232	0.3780517578125	18.7999999525346	-0.0538124591112137	
190	50.2738628730707	0.37591552734375	18.8999999522821	-0.0149535564705729	
191	50.3738628728182	0.376739501953125	18.9999999520296	0.0347390435636044	
192	50.4738628725657	0.3779296875	19.0999999517771	0.0050862436182797	
193	50.5738628723133	0.378662109375	19.1999999515247	0.00228880974464118	
194	50.6738628720608	0.37774658203125	19.2999999512722	-0.0213622227311134	
195	50.7738628718083	0.378570556640625	19.3999999510197	0.0282286517322063	
196	50.8738628715558	0.3798828125	19.4999999507672	0.0113931857049465	
197	50.9738628713034	0.379425048828125	19.5999999505148	-0.0209553241729736	
198	51.0738628710509	0.37835693359375	19.6999999502623	-0.00986731238663197	
199	51.1738628707984	0.378448486328125	19.7999999500098	0.0126138841733336	
200	51.2738628705459	0.378814697265625	19.8999999497573	0.00208535999991	
201	51.3738628702935	0.380096435546875	19.9999999495049	0.019531175494194	
202	51.473862870041	0.3807373046875	20.0999999492524	-0.0019836351275444	
203	51.5738628697885	0.379150390625	20.1999999489999	-0.0322976484894753	
204	51.673862869536	0.379730224609375	20.2999999487474	0.0312803983688354	
205	51.7738628692836	0.3797607421875	20.399999948495	-0.0114949103444815	
206	51.8738628690311	0.382110595703125	20.4999999482425	0.0446572192013264	
207	51.9738628687786	0.38372802734375	20.59999994799	0.00233967206440866	
208	52.0738628685261	0.38372802734375	20.6999999477375	-0.0110371485352516	
209	52.1738628682737	0.383148193359375	20.799999947485	-0.00523883104324341	
210	52.2738628680212	0.3836669921875	20.8999999472326	0.016275979578495	
211	52.3738628677687	0.38372802734375	20.9999999469801	-0.00686642900109291	
212	52.4738628675162	0.3841552734375	21.0999999467276	0.00885006412863731	
213	52.5738628672638	0.382415771484375	21.1999999464751	-0.0366718173027039	
214	52.6738628670113	0.382293701171875	21.2999999462227	0.019480312243104	
215	52.7738628667588	0.3841552734375	21.3999999459702	0.0297545250505209	
216	52.8738628665063	0.385498046875	21.4999999457177	0.00249225948937237	
217	52.9738628662539	0.3843994140625	21.5999999454652	-0.0296019371598959	
218	53.0738628660014	0.384521484375	21.6999999452128	0.019531175494194	
219	53.1738628657489	0.383636474609375	21.7999999449603	-0.0213113613426685	
220	53.2738628654964	0.38360595703125	21.8999999447078	0.0101724872365594	
221	53.373862865244	0.38275146484375	21.9999999444553	-0.0182596147060394	
222	53.4738628649915	0.384429931640625	22.0999999442029	0.0406390875577927	
223	53.573862864739	0.384063720703125	22.1999999439504	-0.029144175350666	
224	53.6738628644865	0.386474609375	22.2999999436979	0.0540667697787285	
225	53.773862864234	0.386810302734375	22.3999999434454	-0.023193271830678	
226	53.8738628639816	0.3875732421875	22.499999943193	0.0181070268154144	
227	53.9738628637291	0.386932373046875	22.5999999429405	-0.019531175494194	
228	54.0738628634766	0.386962890625	22.699999942688	0.0105793867260218	
229	54.1738628632241	0.387054443359375	22.7999999424355	-0.000813798978924751	
230	54.2738628629717	0.385986328125	22.8999999421831	-0.0205484237521887	
231	54.3738628627192	0.385833740234375	22.9999999419306	0.00996903795748949	
232	54.4738628624667	0.385498046875	23.0999999416781	-0.00793454051017761	
233	54.5738628622142	0.38677978515625	23.1999999414256	0.0269062295556068	
234	54.6738628619618	0.387176513671875	23.2999999411732	-0.00879920180886984	
235	54.7738628617093	0.386383056640625	23.3999999409207	-0.0149026941508055	
236	54.8738628614568	0.386566162109375	23.4999999406682	0.0139363072812557	
237	54.9738628612043	0.384857177734375	23.5999999404157	-0.0361123308539391	
238	55.0738628609519	0.384185791015625	23.6999999401633	0.00823971442878246	
239	55.1738628606994	0.3858642578125	23.7999999399108	0.032907996326685	
240	55.2738628604469	0.38665771484375	23.8999999396583	-0.00727332849055529	
241	55.3738628601944	0.38739013671875	23.9999999394058	0.00976558774709702	
242	55.473862859942	0.3876953125	24.0999999391533	-0.000305174617096782	
243	55.5738628596895	0.3878173828125	24.1999999389009	0.00111897359602153	
244	55.673862859437	0.385894775390625	24.2999999386484	-0.0356545671820641	
245	55.7738628591845	0.38641357421875	24.3999999383959	0.0323485098779202	
246	55.8738628589321	0.385650634765625	24.4999999381434	-0.026448467746377	
247	55.9738628586796	0.385345458984375	24.599999937891	0.00503538129851222	
248	56.0738628584271	0.385955810546875	24.6999999376385	0.0122069846838713	
249	56.1738628581746	0.386688232421875	24.799999937386	0.00528969336301088	
250	56.2738628579222	0.385498046875	24.8999999371335	-0.0283303763717413	
251	56.3738628576697	0.385955810546875	24.9999999368811	0.0247191432863474	
252	56.4738628574172	0.3873291015625	25.0999999366286	0.0158690810203552	
253	56.5738628571647	0.385528564453125	25.1999999363761	-0.0475055165588856	
254	56.6738628569123	0.3851318359375	25.2999999361236	0.0183104779571295	
255	56.7738628566598	0.386138916015625	25.3999999358712	0.0170897785574198	
256	56.8738628564073	0.383880615234375	25.4999999356187	-0.0544736683368683	
257	56.9738628561548	0.386199951171875	25.5999999353662	0.0722246617078781	
258	57.0738628559023	0.385894775390625	25.6999999351137	-0.0401813238859177	
259	57.1738628556499	0.3873291015625	25.7999999348613	0.0375873409211636	
260	57.2738628553974	0.385467529296875	25.8999999346088	-0.0518796853721142	
261	57.3738628551449	0.3857421875	25.9999999343563	0.0315347090363503	
262	57.4738628548924	0.386688232421875	26.0999999341038	0.00793454051017761	
263	57.57386285464	0.385345458984375	26.1999999338514	-0.0347390435636044	
264	57.6738628543875	0.386383056640625	26.2999999335989	0.0378416515886784	
265	57.773862854135	0.38616943359375	26.3999999333464	-0.0204975623637438	
266	57.8738628538825	0.385345458984375	26.4999999330939	-0.00915523897856474	
267	57.9738628536301	0.385986328125	26.5999999328415	0.0206501483917236	
268	58.0738628533776	0.385833740234375	26.699999932589	-0.013020783662796	
269	58.1738628531251	0.383758544921875	26.7999999323365	-0.0341286957263947	
270	58.2738628528726	0.385345458984375	26.899999932084	0.0527952089905739	
271	58.3738628526202	0.385894775390625	26.9999999318316	-0.0153604559600353	
272	58.4738628523677	0.38446044921875	27.0999999315791	-0.0274148527532816	
273	58.5738628521152	0.383575439453125	27.1999999313266	0.00233967206440866	
274	58.6738628518627	0.385650634765625	27.2999999310741	0.0435891076922417	
275	58.7738628516103	0.384307861328125	27.3999999308217	-0.0517779588699341	
276	58.8738628513578	0.382781982421875	27.4999999305692	-0.00539141846820712	
277	58.9738628511053	0.384490966796875	27.5999999303167	0.0446572192013264	
278	59.0738628508528	0.384613037109375	27.6999999300642	-0.022786371409893	
279	59.1738628506004	0.38568115234375	27.7999999298117	0.0238544829189777	
280	59.2738628503479	0.386138916015625	27.8999999295593	-0.00366209540516138	
281	59.3738628500954	0.385833740234375	27.9999999293068	-0.00737505313009024	
282	59.4738628498429	0.38421630859375	28.0999999290543	-0.0245665572583675	
283	59.5738628495905	0.3836669921875	28.1999999288018	0.00778195261955261	
284	59.673862849338	0.384979248046875	28.2999999285494	0.0250751804560423	
285	59.7738628490855	0.385589599609375	28.3999999282969	-0.00595090491697192	
286	59.873862848833	0.38623046875	28.4999999280444	0.00900265108793974	
287	59.9738628485806	0.384613037109375	28.5999999277919	-0.0350950807332993	
288	60.0738628483281	0.384857177734375	28.6999999275395	0.0254820808768272	
289	60.1738628480756	0.385955810546875	28.799999927287	0.0119018098339438	
290	60.2738628478231	0.383514404296875	28.8999999270345	-0.0567624792456627	
291	60.3738628475706	0.385223388671875	28.999999926782	0.0634763240814209	
292	60.4738628473182	0.385589599609375	29.0999999265296	-0.0213622227311134	
293	60.5738628470657	0.38494873046875	29.1999999262771	-0.0103250741958618	
294	60.6738628468132	0.38275146484375	29.2999999260246	-0.0315855741500854	
295	60.7738628465607	0.38519287109375	29.3999999257721	0.0682573914527893	
296	60.8738628463083	0.38616943359375	29.4999999255197	-0.0179035775363445	
297	60.9738628460558	0.38519287109375	29.5999999252672	-0.0211587734520435	
298	61.0738628458033	0.3839111328125	29.6999999250147	-0.00885006412863731	
299	61.1738628455508	0.386199951171875	29.7999999247622	0.0536598712205887	
300	61.2738628452984	0.386322021484375	29.8999999245098	-0.0287372767925262	
301	61.3738628450459	0.38494873046875	29.9999999242573	-0.0189716890454292	
302	61.4738628447934	0.38372802734375	30.0999999240048	-0.00595090491697192	
303	61.5738628445409	0.383514404296875	30.1999999237523	0.00574745517224073	
304	61.6738628442885	0.38409423828125	30.2999999234999	0.00905351340770721	
305	61.773862844036	0.3824462890625	30.3999999232474	-0.0376890636980534	
306	61.8738628437835	0.382904052734375	30.4999999229949	0.029551075771451	
307	61.973862843531	0.38360595703125	30.5999999227424	0.00203449744731188	
308	62.0738628432786	0.38299560546875	30.69999992249	-0.0178527142852545	
309	62.1738628430261	0.383392333984375	30.7999999222375	0.0167337413877249	
310	62.2738628427736	0.381500244140625	30.899999921985	-0.0413511618971825	
311	62.3738628425211	0.3834228515625	30.9999999217325	0.058644387871027	
312	62.4738628422687	0.381622314453125	31.09999992148	-0.061746995896101	
313	62.5738628420162	0.380706787109375	31.1999999212276	0.0106302490457892	
314	62.6738628417637	0.381439208984375	31.2999999209751	0.0181070268154144	
315	62.7738628415112	0.38250732421875	31.3999999207226	0.00798540282994509	
316	62.8738628412588	0.382659912109375	31.4999999204701	-0.00722246617078781	
317	62.9738628410063	0.3836669921875	31.5999999202177	0.0202432498335838	
318	63.0738628407538	0.38458251953125	31.6999999199652	0.00554400542750955	
319	63.1738628405013	0.383056640625	31.7999999197127	-0.0352985300123692	
320	63.2738628402489	0.383148193359375	31.8999999194602	0.0225320588797331	
321	63.3738628399964	0.383148193359375	31.9999999192078	-0.00615435466170311	
322	63.4738628397439	0.38250732421875	32.0999999189553	-0.011444048024714	
323	63.5738628394914	0.385162353515625	32.1999999187028	0.056152131408453	
324	63.673862839239	0.38299560546875	32.2999999184503	-0.0728350058197975	
325	63.7738628389865	0.3831787109375	32.3999999181979	0.0374856144189835	
326	63.873862838734	0.384368896484375	32.4999999179454	0.0124612972140312	
327	63.9738628384815	0.383270263671875	32.5999999176929	-0.0334166213870049	
328	64.073862838229	0.383087158203125	32.6999999174404	0.0134276831522584	
329	64.1738628379766	0.38232421875	32.799999917188	-0.0155130429193377	
330	64.2738628377241	0.383148193359375	32.8999999169355	0.0233967211097479	
331	64.3738628374716	0.38299560546875	32.999999916683	-0.0149535564705729	
332	64.4738628372191	0.382415771484375	33.0999999164305	-0.00610349234193563	
333	64.5738628369667	0.381988525390625	33.1999999161781	-0.00157673552166671	
334	64.6738628367142	0.3814697265625	33.2999999159256	-0.00645952951163054	
335	64.7738628364617	0.382720947265625	33.3999999156731	0.0275674406439066	
336	64.8738628362092	0.382598876953125	33.4999999154206	-0.0185647886246443	
337	64.9738628359568	0.3841552734375	33.5999999151682	0.0341286957263947	
338	65.0738628357043	0.383514404296875	33.6999999149157	-0.0303140114992857	
339	65.1738628354518	0.37957763671875	33.7999999146632	-0.0595090501010418	
340	65.2738628351993	0.382232666015625	33.8999999144107	0.0924679115414619	
341	65.3738628349469	0.384552001953125	33.9999999141583	-0.00157673552166671	
342	65.4738628346944	0.383392333984375	34.0999999139058	-0.0394692495465279	
343	65.5738628344419	0.382781982421875	34.1999999136533	0.0100707625970244	
344	65.6738628341894	0.382232666015625	34.2999999134008	-0.00681556668132544	
345	65.773862833937	0.38262939453125	34.3999999131483	0.0116474982351065	
346	65.8738628336845	0.382598876953125	34.4999999128959	-0.00701901642605662	
347	65.973862833432	0.382659912109375	34.5999999126434	0.00279743410646915	
348	66.0738628331795	0.3817138671875	34.6999999123909	-0.0181578900665045	
349	66.1738628329271	0.380767822265625	34.7999999121384	-0.00610349234193563	
350	66.2738628326746	0.382049560546875	34.899999911886	0.0313821248710155	
351	66.3738628324221	0.38116455078125	34.9999999116335	-0.0343321450054646	
352	66.4738628321696	0.38067626953125	35.099999911381	0.00564573053270578	
353	66.5738628319172	0.380889892578125	35.1999999111285	0.00666297925636172	
354	66.6738628316647	0.380340576171875	35.2999999108761	-0.0141906198114157	
355	66.7738628314122	0.38134765625	35.3999999106236	0.0255838055163622	
356	66.8738628311597	0.381744384765625	35.4999999103711	-0.00630694208666682	
357	66.9738628309073	0.38177490234375	35.5999999101186	-0.000712074106559157	
358	67.0738628306548	0.38201904296875	35.6999999098662	0.0054422807879746	
359	67.1738628304023	0.3819580078125	35.7999999096137	-0.00386554514989257	
360	67.2738628301498	0.3802490234375	35.8999999093612	-0.0298053883016109	
361	67.3738628298973	0.380615234375	35.9999999091087	0.026448467746377	
362	67.4738628296449	0.37835693359375	36.0999999088563	-0.0513710603117943	
363	67.5738628293924	0.38018798828125	36.1999999086038	0.0611366480588913	
364	67.6738628291399	0.380126953125	36.2999999083513	-0.0300088375806808	
365	67.7738628288874	0.38067626953125	36.3999999080988	0.0168863292783499	
366	67.873862828635	0.38104248046875	36.4999999078464	0.000101724872365594	
367	67.9738628283825	0.38104248046875	36.5999999075939	-0.00244139693677425	
368	68.07386282813	0.3841552734375	36.6999999073414	0.0582883507013321	
369	68.1738628278775	0.381011962890625	36.7999999070889	-0.0939429178833961	
370	68.2738628276251	0.381500244140625	36.8999999068365	0.055999543517828	
371	68.3738628273726	0.381927490234375	36.999999906584	-0.00834143999963999	
372	68.4738628271201	0.3826904296875	37.0999999063315	0.0106302490457892	
373	68.5738628268676	0.381103515625	37.199999906079	-0.0365700908005238	
374	68.6738628266152	0.382110595703125	37.2999999058266	0.0395201146602631	
375	68.7738628263627	0.38165283203125	37.3999999055741	-0.0254312176257372	
376	68.8738628261102	0.380828857421875	37.4999999053216	-0.00640866719186306	
377	68.9738628258577	0.3804931640625	37.5999999050691	0.00193277257494628	
378	69.0738628256053	0.381591796875	37.6999999048167	0.0213113613426685	
379	69.1738628253528	0.380615234375	37.7999999045642	-0.0318398848176003	
380	69.2738628251003	0.378662109375	37.8999999043117	-0.0207518748939037	
381	69.3738628248478	0.37933349609375	37.9999999040592	0.0318398848176003	
382	69.4738628245954	0.3797607421875	38.0999999038067	-0.00651039183139801	
383	69.5738628243429	0.380706787109375	38.1999999035543	0.014597519300878	
384	69.6738628240904	0.378875732421875	38.2999999033018	-0.0431822091341019	
385	69.7738628238379	0.379608154296875	38.3999999030493	0.0379433780908585	
386	69.8738628235855	0.380035400390625	38.4999999027968	-0.00681556668132544	
387	69.973862823333	0.3797607421875	38.5999999025444	-0.00757850287482142	
388	70.0738628230805	0.379241943359375	38.6999999022919	-0.00488279387354851	
389	70.173862822828	0.38104248046875	38.7999999020394	0.0381468273699284	
390	70.2738628225756	0.3797607421875	38.8999999017869	-0.046233955770731	
391	70.3738628223231	0.37957763671875	38.9999999015345	0.0175984036177397	
392	70.4738628220706	0.3795166015625	39.099999901282	-0.00325519591569901	
393	70.5738628218181	0.37939453125	39.1999999010295	-0.00213622231967747	
394	70.6738628215656	0.38067626953125	39.299999900777	0.0247191432863474	
395	70.7738628213132	0.3790283203125	39.3999999005246	-0.0455727428197861	
396	70.8738628210607	0.380340576171875	39.4999999002721	0.0475563779473305	
397	70.9738628208082	0.381317138671875	39.5999999000196	-0.00289915897883475	
398	71.0738628205557	0.379913330078125	39.6999998997671	-0.03275540843606	
399	71.1738628203033	0.380218505859375	39.7999998995147	0.0252277683466673	
400	71.2738628200508	0.381103515625	39.8999998992622	0.00798540282994509	
401	71.3738628197983	0.3819580078125	39.9999998990097	0.0063578044064343	
402	71.4738628195458	0.381866455078125	40.0999998987572	-0.00869747623801231	
403	71.5738628192934	0.38116455078125	40.1999998985048	-0.00895178876817226	
404	71.6738628190409	0.382537841796875	40.2999998982523	0.03306058421731	
405	71.7738628187884	0.38232421875	40.3999998979998	-0.0222777463495731	
406	71.8738628185359	0.38165283203125	40.4999998977473	-0.00523883104324341	
407	71.9738628182835	0.3831787109375	40.5999998974949	0.0350950807332993	
408	72.073862818031	0.384002685546875	40.6999998972424	-0.00493365619331598	
409	72.1738628177785	0.38397216796875	40.7999998969899	-0.0050862436182797	
410	72.273862817526	0.3836669921875	40.8999998967374	-0.00249225948937237	
411	72.3738628172736	0.384185791015625	40.999999896485	0.0129699213430285	
412	72.4738628170211	0.383392333984375	41.0999998962325	-0.0216165352612734	
413	72.5738628167686	0.38226318359375	41.19999989598	-0.00971472542732954	
414	72.6738628165161	0.382659912109375	41.2999998957275	0.0178018528968096	
415	72.7738628162637	0.385101318359375	41.399999895475	0.0363666415214539	
416	72.8738628160112	0.384246826171875	41.4999998952226	-0.042826171964407	
417	72.9738628157587	0.38623046875	41.5999998949701	0.0544736683368683	
418	73.0738628155062	0.3851318359375	41.6999998947176	-0.0461322292685509	
419	73.1738628152538	0.384735107421875	41.7999998944651	0.0121561223641038	
420	73.2738628150013	0.3843994140625	41.8999998942127	-0.00518796872347593	
421	73.3738628147488	0.383697509765625	41.9999998939602	-0.0102742118760943	
422	73.4738628144963	0.383880615234375	42.0999998937077	0.0104267997667193	
423	73.5738628142439	0.38525390625	42.1999998934552	0.0207010116428137	
424	73.6738628139914	0.384490966796875	42.2999998932028	-0.029398487880826	
425	73.7738628137389	0.386688232421875	42.3999998929503	0.0537615939974785	
426	73.8738628134864	0.388580322265625	42.4999998926978	0.00651039183139801	
427	73.9738628132339	0.38739013671875	42.5999998924453	-0.0365700908005238	
428	74.0738628129815	0.388153076171875	42.6999998921929	0.0341795571148396	
429	74.173862812729	0.388519287109375	42.7999998919404	-0.00615435466170311	
430	74.2738628124765	0.386138916015625	42.8999998916879	-0.0453692935407162	
431	74.373862812224	0.38739013671875	42.9999998914354	0.0519305467605591	
432	74.4738628119716	0.38739013671875	43.099999891183	-0.0225320588797331	
433	74.5738628117191	0.38726806640625	43.1999998909305	0.00193277257494628	
434	74.6738628114666	0.38922119140625	43.299999890678	0.0372313037514687	
435	74.7738628112141	0.389068603515625	43.3999998904255	-0.025990704074502	
436	74.8738628109617	0.3890380859375	43.4999998901731	0.00773109029978514	
437	74.9738628107092	0.389251708984375	43.5999998899206	0.00376382027752697	
438	75.0738628104567	0.38922119140625	43.6999998896681	-0.00315347104333341	
439	75.1738628102042	0.388153076171875	43.7999998894156	-0.0185139272361994	
440	75.2738628099518	0.388519287109375	43.8999998891632	0.0190734136849642	
441	75.3738628096993	0.3890380859375	43.9999998889107	0.0016784603940323	
442	75.4738628094468	0.38946533203125	44.0999998886582	0.00300088385120034	
443	75.5738628091943	0.38995361328125	44.1999998884057	0.00569659285247326	
444	75.6738628089419	0.39080810546875	44.2999998881533	0.0113931857049465	
445	75.7738628086894	0.3896484375	44.3999998879008	-0.0296019371598959	
446	75.8738628084369	0.387298583984375	44.4999998876483	-0.0267027784138918	
447	75.9738628081844	0.386749267578125	44.5999998873958	0.0134785454720259	
448	76.073862807932	0.386962890625	44.6999998871433	0.00249225948937237	
449	76.1738628076795	0.388702392578125	44.7999998868909	0.0275674406439066	
450	76.273862807427	0.390380859375	44.8999998866384	0.0111897364258766	
451	76.3738628071745	0.389923095703125	44.9999998863859	-0.0221760217100382	
452	76.4738628069221	0.390106201171875	45.0999998861334	0.0142923444509506	
453	76.5738628066696	0.39019775390625	45.199999885881	-0.0019836351275444	
454	76.6738628064171	0.389739990234375	45.2999998856285	-0.00885006412863731	
455	76.7738628061646	0.388885498046875	45.399999885376	-0.010019900277257	
456	76.8738628059122	0.388702392578125	45.4999998851235	0.0050862436182797	
457	76.9738628056597	0.38909912109375	45.5999998848711	0.00656125415116549	
458	77.0738628054072	0.390167236328125	45.6999998846186	0.0143432067707181	
459	77.1738628051547	0.388580322265625	45.7999998843661	-0.0402321852743626	
460	77.2738628049023	0.388702392578125	45.8999998841136	0.0243122447282076	
461	77.3738628046498	0.3896484375	45.9999998838612	0.0106302490457892	
462	77.4738628043973	0.38897705078125	46.0999998836087	-0.022938959300518	
463	77.5738628041448	0.39105224609375	46.1999998833562	0.049031388014555	
464	77.6738628038923	0.39093017578125	46.2999998831037	-0.0286864135414362	
465	77.7738628036399	0.390380859375	46.3999998828513	-0.0017293228302151	
466	77.8738628033874	0.390167236328125	46.4999998825988	0.00208535999991	
467	77.9738628031349	0.388671875	46.5999998823463	-0.0267536416649818	
468	78.0738628028824	0.389129638671875	46.6999998820938	0.0251260437071323	
469	78.17386280263	0.38714599609375	46.7999998818414	-0.0466917157173157	
470	78.2738628023775	0.389312744140625	46.8999998815889	0.0643918439745903	
471	78.373862802125	0.38665771484375	46.9999998813364	-0.0805661007761955	
472	78.4738628018725	0.387054443359375	47.0999998810839	0.045471016317606	
473	78.5738628016201	0.388824462890625	47.1999998808315	0.0189716890454292	
474	78.6738628013676	0.387298583984375	47.299999880579	-0.0473020672798157	
475	78.7738628011151	0.38653564453125	47.3999998803265	0.00971472542732954	
476	78.8738628008626	0.388031005859375	47.499999880074	0.0312295351177454	
477	78.9738628006102	0.38616943359375	47.5999998798216	-0.0541176311671734	
478	79.0738628003577	0.387481689453125	47.6999998795691	0.0507607124745846	
479	79.1738628001052	0.38818359375	47.7999998793166	-0.00864661391824484	
480	79.2738627998527	0.386627197265625	47.8999998790641	-0.0323485098779202	
481	79.3738627996003	0.38641357421875	47.9999998788116	0.0165811534970999	
482	79.4738627993478	0.385650634765625	48.0999998785592	-0.01668287999928	
483	79.5738627990953	0.386627197265625	48.1999998783067	0.0260924305766821	
484	79.6738627988428	0.38623046875	48.2999998780542	-0.0212096367031336	
485	79.7738627985904	0.385711669921875	48.3999998778017	-0.0016275979578495	
486	79.8738627983379	0.38525390625	48.4999998775493	-0.00366209540516138	
487	79.9738627980854	0.385406494140625	48.5999998772968	0.00640866719186306	
488	80.0738627978329	0.3846435546875	48.6999998770443	-0.0172932278364897	
489	80.1738627975805	0.3853759765625	48.7999998767918	0.0228372346609831	
490	80.273862797328	0.38385009765625	48.8999998765394	-0.0390623509883881	
491	80.3738627970755	0.38360595703125	48.9999998762869	0.0157673545181751	
492	80.473862796823	0.38385009765625	49.0999998760344	0.00223794719204307	
493	80.5738627965706	0.38336181640625	49.1999998757819	-0.0126138841733336	
494	80.6738627963181	0.38330078125	49.2999998755295	0.00539141846820712	
495	80.7738627960656	0.38330078125	49.399999875277	-0.000915523851290345	
496	80.8738627958131	0.384246826171875	49.4999998750245	0.0171406418085098	
497	80.9738627955606	0.38275146484375	49.599999874772	-0.0384520031511784	
498	81.0738627953082	0.38360595703125	49.6999998745196	0.0362649187445641	
499	81.1738627950557	0.383514404296875	49.7999998742671	-0.0166320167481899	
500	81.2738627948032	0.3822021484375	49.8999998740146	-0.0201415251940489	
501	81.3738627945507	0.382232666015625	49.9999998737621	0.0155639052391052	
502	81.4738627942983	0.383209228515625	50.0999998735097	0.0131733706220984	
503	81.5738627940458	0.3828125	50.1999998732572	-0.0185647886246443	
504	81.6738627937933	0.38232421875	50.2999998730047	-0.00106811115983874	
505	81.7738627935408	0.383331298828125	50.3999998727522	0.0228372346609831	
506	81.8738627932884	0.38079833984375	50.4999998724998	-0.0598142258822918	
507	81.9738627930359	0.381103515625	50.5999998722473	0.0385028645396233	
508	82.0738627927834	0.378509521484375	50.6999998719948	-0.0595599114894867	
509	82.1738627925309	0.37664794921875	50.7999998717423	-0.00284829642623663	
510	82.2738627922785	0.377349853515625	50.8999998714899	0.0259398426860571	
511	82.373862792026	0.379241943359375	50.9999998712374	0.0202941112220287	
512	82.4738627917735	0.3800048828125	51.0999998709849	-0.00574745517224073	
513	82.573862791521	0.380035400390625	51.1999998707324	-0.00203449744731188	
514	82.6738627912686	0.38134765625	51.29999987048	0.0262450166046619	
515	82.7738627910161	0.37921142578125	51.3999998702275	-0.0543719455599785	
516	82.8738627907636	0.379669189453125	51.499999869975	0.0376890636980534	
517	82.9738627905111	0.378509521484375	51.5999998697225	-0.0337217934429646	
518	83.0738627902587	0.378204345703125	51.69999986947	0.00946041289716959	
519	83.1738627900062	0.37628173828125	51.7999998692176	-0.0355528444051743	
520	83.2738627897537	0.3753662109375	51.8999998689651	0.00462848180904984	
521	83.3738627895012	0.376129150390625	51.9999998687126	0.0182596147060394	
522	83.4738627892488	0.375762939453125	52.0999998684601	-0.0186665132641792	
523	83.5738627889963	0.377105712890625	52.1999998682077	0.0314329862594604	
524	83.6738627887438	0.37603759765625	52.2999998679552	-0.036468368023634	
525	83.7738627884913	0.374267578125	52.3999998677027	-0.0155130429193377	
526	83.8738627882389	0.375213623046875	52.4999998674502	0.0344338677823544	
527	83.9738627879864	0.372802734375	52.5999998671978	-0.0611366480588913	
528	84.0738627877339	0.373748779296875	52.6999998669453	0.0486244894564152	
529	84.1738627874814	0.375213623046875	52.7999998666928	0.00778195261955261	
530	84.2738627872289	0.374114990234375	52.8999998664403	-0.0340778306126595	
531	84.3738627869765	0.373931884765625	52.9999998661879	0.0143432067707181	
532	84.473862786724	0.373809814453125	53.0999998659354	-0.00376382027752697	
533	84.5738627864715	0.3746337890625	53.1999998656829	0.0159199424088001	
534	84.673862786219	0.374755859375	53.2999998654304	-0.00778195261955261	
535	84.7738627859666	0.3751220703125	53.399999865178	0.00803626514971256	
536	84.8738627857141	0.3758544921875	53.4999998649255	0.00956213846802711	
537	84.9738627854616	0.377899169921875	53.599999864673	0.0301614254713058	
538	85.0738627852091	0.37823486328125	53.6999998644205	-0.0152587313205004	
539	85.1738627849567	0.375579833984375	53.7999998641681	-0.045776192098856	
540	85.2738627847042	0.37982177734375	53.8999998639156	0.109862864017487	
541	85.3738627844517	0.379150390625	53.9999998636631	-0.0706479251384735	
542	85.4738627841992	0.378814697265625	54.0999998634106	0.0158182177692652	
543	85.5738627839468	0.37933349609375	54.1999998631582	0.0111897364258766	
544	85.6738627836943	0.3792724609375	54.2999998629057	-0.00829057674854994	
545	85.7738627834418	0.379241943359375	54.3999998626532	0.00188191013876349	
546	85.8738627831893	0.3814697265625	54.4999998624007	0.0409951247274876	
547	85.9738627829369	0.38006591796875	54.5999998621483	-0.0518288239836693	
548	86.0738627826844	0.379486083984375	54.6999998618958	0.0131733706220984	
549	86.1738627824319	0.378570556640625	54.7999998616433	-0.014699243940413	
550	86.2738627821794	0.3795166015625	54.8999998613908	0.0260924305766821	
551	86.373862781927	0.37982177734375	54.9999998611383	-0.00849402695894241	
552	86.4738627816745	0.38018798828125	55.0999998608859	0.00630694208666682	
553	86.573862781422	0.381378173828125	55.1999998606334	0.0185647886246443	
554	86.6738627811695	0.380828857421875	55.2999998603809	-0.022735508158803	
555	86.7738627809171	0.380645751953125	55.3999998601284	0.00701901642605662	
556	86.8738627806646	0.381561279296875	55.499999859876	0.0170897785574198	
557	86.9738627804121	0.3804931640625	55.5999998596235	-0.0308734979480505	
558	87.0738627801596	0.380828857421875	55.699999859371	0.0216673985123634	
559	87.1738627799072	0.38177490234375	55.7999998591185	0.00986731238663197	
560	87.2738627796547	0.38336181640625	55.8999998588661	0.0191751383244991	
561	87.3738627794022	0.38531494140625	55.9999998586136	0.0204466991126537	
562	87.4738627791497	0.384307861328125	56.0999998583611	-0.0359597429633141	
563	87.5738627788973	0.385009765625	56.1999998581086	0.0311278104782104	
564	87.6738627786448	0.384765625	56.2999998578562	-0.0160216670483351	
565	87.7738627783923	0.384552001953125	56.3999998576037	0.00127156090456992	
566	87.8738627781398	0.384033203125	56.4999998573512	-0.00783281493932009	
567	87.9738627778873	0.3837890625	56.5999998570987	0.000864661415107548	
568	88.0738627776349	0.38427734375	56.6999998568463	0.0100707625970244	
569	88.1738627773824	0.38555908203125	56.7999998565938	0.0169880539178848	
570	88.2738627771299	0.38653564453125	56.8999998563413	0.00457761948928237	
571	88.3738627768774	0.386566162109375	56.9999998560888	-0.00656125415116549	
572	88.473862776625	0.385986328125	57.0999998558364	-0.00773109029978514	
573	88.5738627763725	0.38494873046875	57.1999998555839	-0.0121561223641038	
574	88.67386277612	0.384307861328125	57.2999998553314	-0.00157673552166671	
575	88.7738627758675	0.384765625	57.3999998550789	0.0124104348942637	
576	88.8738627756151	0.38800048828125	57.4999998548265	0.0518288239836693	
577	88.9738627753626	0.3873291015625	57.599999854574	-0.0485227629542351	
578	89.0738627751101	0.387908935546875	57.6999998543215	0.029245899990201	
579	89.1738627748576	0.387359619140625	57.799999854069	-0.0190734136849642	
580	89.2738627746052	0.386322021484375	57.8999998538166	-0.0106811113655567	
581	89.3738627743527	0.384033203125	57.9999998535641	-0.0316872969269753	
582	89.4738627741002	0.38421630859375	58.0999998533116	0.0266010537743568	
583	89.5738627738477	0.385284423828125	58.1999998530591	0.00981645006686449	
584	89.6738627735953	0.38336181640625	58.2999998528066	-0.0470986142754555	
585	89.7738627733428	0.38262939453125	58.3999998525542	0.0125630218535662	
586	89.8738627730903	0.384307861328125	58.4999998523017	0.032907996326685	
587	89.9738627728378	0.385589599609375	58.5999998520492	0.00147501064930111	
588	90.0738627725854	0.38323974609375	58.6999998517967	-0.052439171820879	
589	90.1738627723329	0.382598876953125	58.7999998515443	0.019938075914979	
590	90.2738627720804	0.383544921875	58.8999998512918	0.0169880539178848	
591	90.3738627718279	0.38397216796875	58.9999998510393	-0.00534055568277836	
592	90.4738627715755	0.384490966796875	59.0999998507868	0.00768022798001766	
593	90.573862771323	0.383697509765625	59.1999998505344	-0.0191751383244991	
594	90.6738627710705	0.38507080078125	59.2999998502819	0.036163192242384	
595	90.773862770818	0.384674072265625	59.3999998500294	-0.0259398426860571	
596	90.8738627705656	0.384490966796875	59.4999998497769	0.00584918027743697	
597	90.9738627703131	0.385498046875	59.5999998495245	0.0192768629640341	
598	91.0738627700606	0.3839111328125	59.699999849272	-0.0414528846740723	
599	91.1738627698081	0.385955810546875	59.7999998490195	0.0593564622104168	
600	91.2738627695556	0.385986328125	59.899999848767	-0.0285846889019012	
