Index	Potential applied (V)	Time (s)	WE(1).Current (A)	WE(1).Potential (V)
1	0.00244140625	229.946071419442	1.50451660156251E-07	0.0026214599609375
2	0.0048828125	229.97047141938	3.2989501953125E-07	0.0050811767578125
3	0.00732421875	229.994871419319	4.73632812499999E-07	0.0074798583984375
4	0.009765625	230.019271419257	5.780029296875E-07	0.00994262695312501
5	0.01220703125	230.043671419196	7.0220947265625E-07	0.0123870849609375
6	0.0146484375	230.068071419134	8.7493896484375E-07	0.01480712890625
7	0.01708984375	230.092471419072	1.0400390625E-06	0.0172393798828125
8	0.01953125	230.116871419011	1.153564453125E-06	0.0196807861328125
9	0.02197265625	230.141271418949	1.2823486328125E-06	0.022125244140625
10	0.0244140625	230.165671418888	1.44378662109375E-06	0.0245819091796875
11	0.02685546875	230.190071418826	1.6094970703125E-06	0.0270263671875
12	0.029296875	230.214471418764	1.76300048828125E-06	0.029443359375
13	0.03173828125	230.238871418703	1.88323974609375E-06	0.031884765625
14	0.0341796875	230.263271418641	2.003173828125E-06	0.0343353271484375
15	0.03662109375	230.28767141858	2.18780517578125E-06	0.0367645263671875
16	0.0390625	230.312071418518	2.36358642578125E-06	0.0391815185546875
17	0.04150390625	230.336471418456	2.49481201171875E-06	0.041650390625
18	0.0439453125	230.360871418395	2.6123046875E-06	0.044091796875
19	0.04638671875	230.385271418333	2.774658203125E-06	0.0465301513671875
20	0.048828125	230.409671418272	2.9449462890625E-06	0.0489715576171875
21	0.05126953125	230.43407141821	3.12530517578125E-06	0.051300048828125
22	0.0537109375	230.458471418148	3.27972412109375E-06	0.053680419921875
23	0.05615234375	230.482871418087	3.40057373046875E-06	0.056182861328125
24	0.05859375	230.507271418025	3.57269287109375E-06	0.05859375
25	0.06103515625	230.531671417963	3.7646484375E-06	0.061004638671875
26	0.0634765625	230.556071417902	3.91357421875E-06	0.06341552734375
27	0.06591796875	230.58047141784	4.0509033203125E-06	0.06591796875
28	0.068359375	230.604871417779	4.22454833984375E-06	0.068359375
29	0.07080078125	230.629271417717	4.40338134765625E-06	0.070770263671875
30	0.0732421875	230.653671417655	4.58343505859375E-06	0.073211669921875
31	0.07568359375	230.678071417594	4.7344970703125E-06	0.07568359375
32	0.078125	230.702471417532	4.8809814453125E-06	0.078094482421875
33	0.08056640625	230.726871417471	5.0567626953125E-06	0.080474853515625
34	0.0830078125	230.751271417409	5.2978515625E-06	0.08294677734375
35	0.08544921875	230.775671417347	5.4901123046875E-06	0.08538818359375
36	0.087890625	230.800071417286	5.657958984375E-06	0.08782958984375
37	0.09033203125	230.824471417224	5.8502197265625E-06	0.0902099609375
38	0.0927734375	230.848871417163	6.0699462890625E-06	0.09271240234375
39	0.09521484375	230.873271417101	6.231689453125E-06	0.0950927734375
40	0.09765625	230.897671417039	6.390380859375E-06	0.097625732421875
41	0.10009765625	230.922071416978	6.55517578125E-06	0.10003662109375
42	0.1025390625	230.946471416916	6.7840576171875E-06	0.10247802734375
43	0.10498046875	230.970871416855	6.9915771484375E-06	0.10491943359375
44	0.107421875	230.995271416793	7.232666015625E-06	0.1072998046875
45	0.10986328125	231.019671416731	7.3577880859375E-06	0.109710693359375
46	0.1123046875	231.04407141667	7.50732421875E-06	0.112213134765625
47	0.11474609375	231.068471416608	7.77587890625E-06	0.1146240234375
48	0.1171875	231.092871416547	8.056640625E-06	0.1170654296875
49	0.11962890625	231.117271416485	8.2122802734375E-06	0.1195068359375
50	0.1220703125	231.141671416423	8.3770751953125E-06	0.121917724609375
51	0.12451171875	231.166071416362	8.5906982421875E-06	0.12445068359375
52	0.126953125	231.1904714163	8.8409423828125E-06	0.126861572265625
53	0.12939453125	231.214871416239	9.0606689453125E-06	0.129241943359375
54	0.1318359375	231.239271416177	9.2681884765625E-06	0.131683349609375
55	0.13427734375	231.263671416115	9.5367431640625E-06	0.1341552734375
56	0.13671875	231.288071416054	9.7930908203125E-06	0.136566162109375
57	0.13916015625	231.312471415992	9.9945068359375E-06	0.139068603515625
58	0.1416015625	231.336871415931	1.0186767578125E-05	0.141448974609375
59	0.14404296875	231.361271415869	1.04888916015625E-05	0.14385986328125
60	0.146484375	231.385671415807	1.06842041015625E-05	0.146331787109375
61	0.14892578125	231.410071415746	1.0943603515625E-05	0.14874267578125
62	0.1513671875	231.434471415684	1.12518310546875E-05	0.151214599609375
63	0.15380859375	231.458871415623	1.14593505859375E-05	0.1536865234375
64	0.15625	231.483271415561	1.17218017578125E-05	0.15606689453125
65	0.15869140625	231.507671415499	1.19842529296875E-05	0.158538818359375
66	0.1611328125	231.532071415438	1.231689453125E-05	0.1610107421875
67	0.16357421875	231.556471415376	1.26068115234375E-05	0.1634521484375
68	0.166015625	231.580871415315	1.28875732421875E-05	0.16583251953125
69	0.16845703125	231.605271415253	1.31378173828125E-05	0.16827392578125
70	0.1708984375	231.629671415191	1.35040283203125E-05	0.1707763671875
71	0.17333984375	231.65407141513	1.38336181640625E-05	0.17315673828125
72	0.17578125	231.678471415068	1.41326904296875E-05	0.175537109375
73	0.17822265625	231.702871415006	1.44378662109375E-05	0.178070068359375
74	0.1806640625	231.727271414945	1.47186279296875E-05	0.18048095703125
75	0.18310546875	231.751671414883	1.50848388671875E-05	0.1829833984375
76	0.185546875	231.776071414822	1.54815673828125E-05	0.18524169921875
77	0.18798828125	231.80047141476	1.57623291015625E-05	0.18780517578125
78	0.1904296875	231.824871414698	1.60980224609375E-05	0.190155029296875
79	0.19287109375	231.849271414637	1.65252685546875E-05	0.192626953125
80	0.1953125	231.873671414575	1.69158935546875E-05	0.195037841796875
81	0.19775390625	231.898071414514	1.724853515625E-05	0.197509765625
82	0.2001953125	231.922471414452	1.76422119140625E-05	0.199920654296875
83	0.20263671875	231.94687141439	1.80450439453125E-05	0.202392578125
84	0.205078125	231.971271414329	1.844482421875E-05	0.204742431640625
85	0.20751953125	231.995671414267	1.88690185546875E-05	0.20721435546875
86	0.2099609375	232.020071414206	1.925048828125E-05	0.209686279296875
87	0.21240234375	232.044471414144	1.97662353515625E-05	0.2120361328125
88	0.21484375	232.068871414082	2.00531005859375E-05	0.214569091796875
89	0.21728515625	232.093271414021	2.05718994140625E-05	0.2169189453125
90	0.2197265625	232.117671413959	2.108154296875E-05	0.219390869140625
91	0.22216796875	232.142071413898	2.14996337890625E-05	0.2218017578125
92	0.224609375	232.166471413836	2.19940185546875E-05	0.224273681640625
93	0.22705078125	232.190871413774	2.25494384765625E-05	0.22662353515625
94	0.2294921875	232.215271413713	2.30560302734375E-05	0.2291259765625
95	0.23193359375	232.239671413651	2.3492431640625E-05	0.231536865234375
96	0.234375	232.26407141359	2.39959716796875E-05	0.2340087890625
97	0.23681640625	232.288471413528	2.45208740234375E-05	0.23638916015625
98	0.2392578125	232.312871413466	2.5189208984375E-05	0.238800048828125
99	0.24169921875	232.337271413405	2.5775146484375E-05	0.2412109375
100	0.244140625	232.361671413343	2.62237548828125E-05	0.24359130859375
101	0.24658203125	232.386071413282	2.686767578125E-05	0.246063232421875
102	0.2490234375	232.41047141322	2.74383544921875E-05	0.248504638671875
103	0.25146484375	232.434871413158	2.80792236328125E-05	0.250946044921875
104	0.25390625	232.459271413097	2.8643798828125E-05	0.25335693359375
105	0.25634765625	232.483671413035	2.926025390625E-05	0.255859375
106	0.2587890625	232.508071412974	2.98980712890625E-05	0.258209228515625
107	0.26123046875	232.532471412912	3.06304931640625E-05	0.260650634765625
108	0.263671875	232.55687141285	3.12896728515625E-05	0.26361083984375
109	0.26611328125	232.581271412789	3.1951904296875E-05	0.266021728515625
110	0.2685546875	232.605671412727	3.26507568359375E-05	0.268524169921875
111	0.27099609375	232.630071412666	3.34259033203125E-05	0.270904541015625
112	0.2734375	232.654471412604	3.4161376953125E-05	0.27337646484375
113	0.27587890625	232.678871412542	3.477783203125E-05	0.275848388671875
114	0.2783203125	232.703271412481	3.55682373046875E-05	0.278228759765625
115	0.28076171875	232.727671412419	3.63433837890625E-05	0.280731201171875
116	0.283203125	232.752071412358	3.7152099609375E-05	0.283172607421875
117	0.28564453125	232.776471412296	3.79150390625E-05	0.285552978515625
118	0.2880859375	232.800871412234	3.85650634765625E-05	0.288055419921875
119	0.29052734375	232.825271412173	3.94744873046875E-05	0.29046630859375
120	0.29296875	232.849671412111	4.02740478515625E-05	0.2928466796875
121	0.29541015625	232.874071412049	4.1143798828125E-05	0.295379638671875
122	0.2978515625	232.898471411988	4.200439453125E-05	0.29779052734375
123	0.30029296875	232.922871411926	4.30450439453125E-05	0.300201416015625
124	0.302734375	232.947271411865	4.3878173828125E-05	0.302642822265625
125	0.30517578125	232.971671411803	4.46929931640625E-05	0.3050537109375
126	0.3076171875	232.996071411741	4.56817626953125E-05	0.307525634765625
127	0.31005859375	233.02047141168	4.659423828125E-05	0.3099365234375
128	0.3125	233.044871411618	4.7637939453125E-05	0.312469482421875
129	0.31494140625	233.069271411557	4.8663330078125E-05	0.31488037109375
130	0.3173828125	233.093671411495	4.9609375E-05	0.31732177734375
131	0.31982421875	233.118071411433	5.0628662109375E-05	0.3197021484375
132	0.322265625	233.142471411372	5.17578125E-05	0.3221435546875
133	0.32470703125	233.16687141131	5.2703857421875E-05	0.32464599609375
134	0.3271484375	233.191271411249	5.3802490234375E-05	0.3270263671875
135	0.32958984375	233.215671411187	5.487060546875E-05	0.329498291015625
136	0.33203125	233.240071411125	5.5877685546875E-05	0.33184814453125
137	0.33447265625	233.264471411064	5.706787109375E-05	0.334320068359375
138	0.3369140625	233.288871411002	5.8074951171875E-05	0.336761474609375
139	0.33935546875	233.313271410941	5.9295654296875E-05	0.339202880859375
140	0.341796875	233.337671410879	6.048583984375E-05	0.3416748046875
141	0.34423828125	233.362071410817	6.1767578125E-05	0.344085693359375
142	0.3466796875	233.386471410756	6.2774658203125E-05	0.346527099609375
143	0.34912109375	233.410871410694	6.4056396484375E-05	0.34893798828125
144	0.3515625	233.435271410633	6.5216064453125E-05	0.351409912109375
145	0.35400390625	233.459671410571	6.6436767578125E-05	0.353912353515625
146	0.3564453125	233.484071410509	6.781005859375E-05	0.35626220703125
147	0.35888671875	233.508471410448	6.9244384765625E-05	0.3587646484375
148	0.361328125	233.532871410386	7.0281982421875E-05	0.3612060546875
149	0.36376953125	233.557271410325	7.1685791015625E-05	0.363616943359375
150	0.3662109375	233.581671410263	7.2845458984375E-05	0.366058349609375
151	0.36865234375	233.606071410201	7.4310302734375E-05	0.36846923828125
152	0.37109375	233.63047141014	7.562255859375E-05	0.3709716796875
153	0.37353515625	233.654871410078	7.708740234375E-05	0.3734130859375
154	0.3759765625	233.679271410017	7.8369140625E-05	0.3758544921875
155	0.37841796875	233.703671409955	7.965087890625E-05	0.37823486328125
156	0.380859375	233.728071409893	8.123779296875E-05	0.380706787109375
157	0.38330078125	233.752471409832	8.2611083984375E-05	0.383148193359375
158	0.3857421875	233.77687140977	8.4075927734375E-05	0.385589599609375
159	0.38818359375	233.801271409709	8.5540771484375E-05	0.38800048828125
160	0.390625	233.825671409647	8.709716796875E-05	0.390533447265625
161	0.39306640625	233.850071409585	8.8836669921875E-05	0.392913818359375
162	0.3955078125	233.874471409524	9.0545654296875E-05	0.395355224609375
163	0.39794921875	233.898871409462	9.2010498046875E-05	0.39776611328125
164	0.400390625	233.923271409401	9.33837890625E-05	0.400238037109375
165	0.40283203125	233.947671409339	9.4970703125E-05	0.402679443359375
166	0.4052734375	233.972071409277	9.65576171875E-05	0.4051513671875
167	0.40771484375	233.996471409216	9.8358154296875E-05	0.407501220703125
168	0.41015625	234.020871409154	0.000100067138671875	0.410003662109375
169	0.41259765625	234.045271409092	0.00010198974609375	0.41241455078125
170	0.4150390625	234.069671409031	0.00010369873046875	0.41485595703125
171	0.41748046875	234.094071408969	0.0001053466796875	0.417266845703125
172	0.419921875	234.118471408908	0.000107147216796875	0.419708251953125
173	0.42236328125	234.142871408846	0.000109100341796875	0.422119140625
174	0.4248046875	234.167271408784	0.000110931396484375	0.424591064453125
175	0.42724609375	234.191671408723	0.000113006591796875	0.427032470703125
176	0.4296875	234.216071408661	0.0001148681640625	0.42950439453125
177	0.43212890625	234.2404714086	0.000116607666015625	0.431884765625
178	0.4345703125	234.264871408538	0.000118804931640625	0.434295654296875
179	0.43701171875	234.289271408476	0.000120697021484375	0.436798095703125
180	0.439453125	234.313671408415	0.000122833251953125	0.439239501953125
181	0.44189453125	234.338071408353	0.000124847412109375	0.441650390625
182	0.4443359375	234.362471408292	0.00012713623046875	0.444061279296875
183	0.44677734375	234.38687140823	0.000128692626953125	0.446563720703125
184	0.44921875	234.411271408168	0.00013092041015625	0.448974609375
185	0.45166015625	234.435671408107	0.00013299560546875	0.451416015625
186	0.4541015625	234.460071408045	0.000135223388671875	0.453826904296875
187	0.45654296875	234.484471407984	0.00013726806640625	0.456329345703125
188	0.458984375	234.508871407922	0.000139617919921875	0.458709716796875
189	0.46142578125	234.53327140786	0.000142120361328125	0.461151123046875
190	0.4638671875	234.557671407799	0.000144287109375	0.463531494140625
191	0.46630859375	234.582071407737	0.000146697998046875	0.46600341796875
192	0.46875	234.606471407676	0.00014910888671875	0.46844482421875
193	0.47119140625	234.630871407614	0.00015155029296875	0.47088623046875
194	0.4736328125	234.655271407552	0.00015374755859375	0.473388671875
195	0.47607421875	234.679671407491	0.000156280517578125	0.475738525390625
196	0.478515625	234.704071407429	0.0001585693359375	0.478179931640625
197	0.48095703125	234.728471407368	0.00016119384765625	0.480560302734375
198	0.4833984375	234.752871407306	0.000163848876953125	0.483062744140625
199	0.48583984375	234.777271407244	0.000166473388671875	0.4854736328125
200	0.48828125	234.801671407183	0.000169403076171875	0.487884521484375
201	0.49072265625	234.826071407121	0.00017205810546875	0.49029541015625
202	0.4931640625	234.85047140706	0.000175079345703125	0.4927978515625
203	0.49560546875	234.874871406998	0.00017742919921875	0.49517822265625
204	0.498046875	234.899271406936	0.000180419921875	0.49761962890625
205	0.50048828125	234.923671406875	0.000183380126953125	0.500030517578125
206	0.5029296875	234.948071406813	0.000186279296875	0.50250244140625
207	0.50537109375	234.972471406752	0.000189117431640625	0.504974365234375
208	0.5078125	234.99687140669	0.00019207763671875	0.507415771484375
209	0.51025390625	235.021271406628	0.000195037841796875	0.509796142578125
210	0.5126953125	235.045671406567	0.000197967529296875	0.512237548828125
211	0.51513671875	235.070071406505	0.00020098876953125	0.514678955078125
212	0.517578125	235.094471406444	0.000204315185546875	0.517120361328125
213	0.52001953125	235.118871406382	0.000207366943359375	0.519561767578125
214	0.5224609375	235.14327140632	0.000210357666015625	0.52197265625
215	0.52490234375	235.167671406259	0.000213623046875	0.524505615234375
216	0.52734375	235.192071406197	0.000216827392578125	0.526824951171875
217	0.52978515625	235.216471406135	0.00022021484375	0.529266357421875
218	0.5322265625	235.240871406074	0.000223602294921875	0.531707763671875
219	0.53466796875	235.265271406012	0.000227081298828125	0.534149169921875
220	0.537109375	235.289671405951	0.0002303466796875	0.536590576171875
221	0.53955078125	235.314071405889	0.000233978271484375	0.538970947265625
222	0.5419921875	235.338471405827	0.000237396240234375	0.541412353515625
223	0.54443359375	235.362871405766	0.00024072265625	0.543853759765625
224	0.546875	235.387271405704	0.0002442626953125	0.54632568359375
225	0.54931640625	235.411671405643	0.000247955322265625	0.5487060546875
226	0.5517578125	235.436071405581	0.00025164794921875	0.5511474609375
227	0.55419921875	235.460471405519	0.00025537109375	0.5535888671875
228	0.556640625	235.484871405458	0.0002591552734375	0.55596923828125
229	0.55908203125	235.509271405396	0.000263275146484375	0.558502197265625
230	0.5615234375	235.533671405335	0.000267181396484375	0.56085205078125
231	0.56396484375	235.558071405273	0.0002708740234375	0.563262939453125
232	0.56640625	235.582471405211	0.000274566650390625	0.56573486328125
233	0.56884765625	235.60687140515	0.000278717041015625	0.568084716796875
234	0.5712890625	235.631271405088	0.0002828369140625	0.570587158203125
235	0.57373046875	235.655671405027	0.000286773681640625	0.572998046875
236	0.576171875	235.680071404965	0.000290924072265625	0.575439453125
237	0.57861328125	235.704471404903	0.000295440673828125	0.577880859375
238	0.5810546875	235.728871404842	0.000299560546875	0.580230712890625
239	0.58349609375	235.75327140478	0.0003038330078125	0.58270263671875
240	0.5859375	235.777671404719	0.000308563232421875	0.585845947265625
241	0.58837890625	235.802071404657	0.00031292724609375	0.588226318359375
242	0.5908203125	235.826471404595	0.000317291259765625	0.5906982421875
243	0.59326171875	235.850871404534	0.000321624755859375	0.593109130859375
244	0.595703125	235.875271404472	0.000326171875	0.5955810546875
245	0.59814453125	235.899671404411	0.000330902099609375	0.5980224609375
246	0.6005859375	235.924071404349	0.000335784912109375	0.600433349609375
247	0.60302734375	235.948471404287	0.000340423583984375	0.6029052734375
248	0.60546875	235.972871404226	0.00034478759765625	0.6053466796875
249	0.60791015625	235.997271404164	0.000349609375	0.6077880859375
250	0.6103515625	236.021671404103	0.000354522705078125	0.61016845703125
251	0.61279296875	236.046071404041	0.000359344482421875	0.61260986328125
252	0.615234375	236.070471403979	0.000364593505859375	0.615081787109375
253	0.61767578125	236.094871403918	0.000369873046875	0.61749267578125
254	0.6201171875	236.119271403856	0.0003751220703125	0.61993408203125
255	0.62255859375	236.143671403795	0.000380157470703125	0.62237548828125
256	0.625	236.168071403733	0.000385223388671875	0.624786376953125
257	0.62744140625	236.192471403671	0.000390594482421875	0.627288818359375
258	0.6298828125	236.21687140361	0.00039599609375	0.629730224609375
259	0.63232421875	236.241271403548	0.0004014892578125	0.63214111328125
260	0.634765625	236.265671403487	0.000406890869140625	0.634613037109375
261	0.63720703125	236.290071403425	0.0004124755859375	0.636993408203125
262	0.6396484375	236.314471403363	0.0004178466796875	0.639495849609375
263	0.64208984375	236.338871403302	0.0004234619140625	0.641876220703125
264	0.64453125	236.36327140324	0.00042926025390625	0.644317626953125
265	0.64697265625	236.387671403179	0.000435089111328125	0.646759033203125
266	0.6494140625	236.412071403117	0.00044097900390625	0.649261474609375
267	0.65185546875	236.436471403055	0.0004466552734375	0.65167236328125
268	0.654296875	236.460871402994	0.000452880859375	0.654083251953125
269	0.65673828125	236.485271402932	0.000458770751953125	0.656494140625
270	0.6591796875	236.50967140287	0.000464874267578125	0.658966064453125
271	0.66162109375	236.534071402809	0.00047125244140625	0.661407470703125
272	0.6640625	236.558471402747	0.0004774169921875	0.663818359375
273	0.66650390625	236.582871402686	0.00048358154296875	0.666259765625
274	0.6689453125	236.607271402624	0.0004901123046875	0.668701171875
275	0.67138671875	236.631671402562	0.000496551513671875	0.67120361328125
276	0.673828125	236.656071402501	0.00050323486328125	0.673614501953125
277	0.67626953125	236.680471402439	0.00051025390625	0.675994873046875
278	0.6787109375	236.704871402378	0.0005169677734375	0.678558349609375
279	0.68115234375	236.729271402316	0.000523681640625	0.680938720703125
280	0.68359375	236.753671402254	0.00053009033203125	0.683380126953125
281	0.68603515625	236.778071402193	0.0005377197265625	0.685821533203125
282	0.6884765625	236.802471402131	0.00054443359375	0.688232421875
283	0.69091796875	236.82687140207	0.00055145263671875	0.690643310546875
284	0.693359375	236.851271402008	0.00055877685546875	0.693084716796875
285	0.69580078125	236.875671401946	0.00056610107421875	0.69549560546875
286	0.6982421875	236.900071401885	0.0005731201171875	0.697967529296875
287	0.70068359375	236.924471401823	0.0005804443359375	0.700469970703125
288	0.703125	236.948871401762	0.00058837890625	0.702850341796875
289	0.70556640625	236.9732714017	0.00059539794921875	0.705291748046875
290	0.7080078125	236.997671401638	0.00060302734375	0.707763671875
291	0.71044921875	237.022071401577	0.00061065673828125	0.710205078125
292	0.712890625	237.046471401515	0.000618896484375	0.712615966796875
293	0.71533203125	237.070871401454	0.00062652587890625	0.71502685546875
294	0.7177734375	237.095271401392	0.00063446044921875	0.71746826171875
295	0.72021484375	237.11967140133	0.00064239501953125	0.719940185546875
296	0.72265625	237.144071401269	0.00065032958984375	0.722381591796875
297	0.72509765625	237.168471401207	0.0006585693359375	0.724761962890625
298	0.7275390625	237.192871401146	0.0006671142578125	0.727203369140625
299	0.72998046875	237.217271401084	0.00067535400390625	0.729644775390625
300	0.732421875	237.241671401022	0.0006842041015625	0.732086181640625
301	0.73486328125	237.266071400961	0.00069244384765625	0.73455810546875
302	0.7373046875	237.290471400899	0.00070098876953125	0.737030029296875
303	0.73974609375	237.314871400838	0.0007098388671875	0.7393798828125
304	0.7421875	237.339271400776	0.000718994140625	0.741943359375
305	0.74462890625	237.363671400714	0.00072784423828125	0.744293212890625
306	0.7470703125	237.388071400653	0.00073699951171875	0.74676513671875
307	0.74951171875	237.412471400591	0.00074615478515625	0.749176025390625
308	0.751953125	237.43687140053	0.00075531005859375	0.75103759765625
309	0.75439453125	237.461271400468	0.00076446533203125	0.7537841796875
310	0.7568359375	237.485671400406	0.00077392578125	0.7562255859375
311	0.75927734375	237.510071400345	0.0007830810546875	0.75836181640625
312	0.76171875	237.534471400283	0.00079315185546875	0.76080322265625
313	0.76416015625	237.558871400222	0.0008026123046875	0.7635498046875
314	0.7666015625	237.58327140016	0.00081268310546875	0.7659912109375
315	0.76904296875	237.607671400098	0.00082244873046875	0.76812744140625
316	0.771484375	237.632071400037	0.00083221435546875	0.770263671875
317	0.77392578125	237.656471399975	0.00084259033203125	0.7733154296875
318	0.7763671875	237.680871399913	0.00085296630859375	0.77545166015625
319	0.77880859375	237.705271399852	0.00086334228515625	0.7781982421875
320	0.78125	237.72967139979	0.00087371826171875	0.78094482421875
321	0.78369140625	237.754071399729	0.0008837890625	0.782470703125
322	0.7861328125	237.778471399667	0.0008953857421875	0.7855224609375
323	0.78857421875	237.802871399605	0.000906982421875	0.787353515625
324	0.791015625	237.827271399544	0.0009173583984375	0.7904052734375
325	0.79345703125	237.851671399482	0.0009283447265625	0.7928466796875
326	0.7958984375	237.876071399421	0.00093902587890625	0.794677734375
327	0.79833984375	237.900471399359	0.000950927734375	0.7977294921875
328	0.80078125	237.924871399297	0.0009613037109375	0.799560546875
329	0.80322265625	237.949271399236	0.000972900390625	0.80230712890625
330	0.8056640625	237.973671399174	0.00098480224609375	0.8050537109375
331	0.80810546875	237.998071399113	0.0009967041015625	0.80718994140625
332	0.810546875	238.022471399051	0.00100830078125	0.80902099609375
333	0.81298828125	238.046871398989	0.00102020263671875	0.81207275390625
334	0.8154296875	238.071271398928	0.00103271484375	0.814208984375
335	0.81787109375	238.095671398866	0.001044921875	0.8172607421875
336	0.8203125	238.120071398805	0.0010577392578125	0.81939697265625
337	0.82275390625	238.144471398743	0.0010699462890625	0.821533203125
338	0.8251953125	238.168871398681	0.00108245849609375	0.8245849609375
339	0.82763671875	238.19327139862	0.001094970703125	0.82672119140625
340	0.830078125	238.217671398558	0.0011077880859375	0.82916259765625
341	0.83251953125	238.242071398497	0.00112091064453125	0.83160400390625
342	0.8349609375	238.266471398435	0.00113433837890625	0.8343505859375
343	0.83740234375	238.290871398373	0.00114776611328125	0.83648681640625
344	0.83984375	238.315271398312	0.00116119384765625	0.83984375
345	0.84228515625	238.33967139825	0.0011749267578125	0.8416748046875
346	0.8447265625	238.364071398189	0.00118865966796875	0.843505859375
347	0.84716796875	238.388471398127	0.0012017822265625	0.84686279296875
348	0.849609375	238.412871398065	0.0012158203125	0.84869384765625
349	0.85205078125	238.437271398004	0.00122955322265625	0.850830078125
350	0.8544921875	238.461671397942	0.001243896484375	0.853271484375
351	0.85693359375	238.486071397881	0.0012579345703125	0.855712890625
352	0.859375	238.510471397819	0.00127288818359375	0.858154296875
353	0.86181640625	238.534871397757	0.00128753662109375	0.8612060546875
354	0.8642578125	238.559271397696	0.00130218505859375	0.863037109375
355	0.86669921875	238.583671397634	0.00131683349609375	0.865478515625
356	0.869140625	238.608071397573	0.001331787109375	0.8685302734375
357	0.87158203125	238.632471397511	0.00134674072265625	0.8709716796875
358	0.8740234375	238.656871397449	0.0013616943359375	0.872802734375
359	0.87646484375	238.681271397388	0.00137786865234375	0.875244140625
360	0.87890625	238.705671397326	0.00139312744140625	0.87738037109375
361	0.88134765625	238.730071397265	0.00140838623046875	0.880126953125
362	0.8837890625	238.754471397203	0.00142425537109375	0.88287353515625
363	0.88623046875	238.778871397141	0.00144012451171875	0.885009765625
364	0.888671875	238.80327139708	0.00145599365234375	0.88836669921875
365	0.89111328125	238.827671397018	0.00147247314453125	0.8905029296875
366	0.8935546875	238.852071396956	0.00148895263671875	0.89324951171875
367	0.89599609375	238.876471396895	0.00150543212890625	0.89508056640625
368	0.8984375	238.900871396833	0.001522216796875	0.897216796875
369	0.90087890625	238.925271396772	0.00153961181640625	0.89996337890625
370	0.9033203125	238.94967139671	0.0015570068359375	0.90179443359375
371	0.90576171875	238.974071396648	0.00157379150390625	0.90484619140625
372	0.908203125	238.998471396587	0.00159088134765625	0.9075927734375
373	0.91064453125	239.022871396525	0.00160858154296875	0.90972900390625
374	0.9130859375	239.047271396464	0.00162628173828125	0.91217041015625
375	0.91552734375	239.071671396402	0.00164459228515625	0.9149169921875
376	0.91796875	239.09607139634	0.00166229248046875	0.916748046875
377	0.92041015625	239.120471396279	0.00168060302734375	0.9197998046875
378	0.9228515625	239.144871396217	0.00169952392578125	0.92193603515625
379	0.92529296875	239.169271396156	0.00171783447265625	0.92437744140625
380	0.927734375	239.193671396094	0.0017364501953125	0.92681884765625
381	0.93017578125	239.218071396032	0.00175567626953125	0.92926025390625
382	0.9326171875	239.242471395971	0.00177490234375	0.9320068359375
383	0.93505859375	239.266871395909	0.00179443359375	0.93414306640625
384	0.9375	239.291271395848	0.00181427001953125	0.93658447265625
385	0.93994140625	239.315671395786	0.0018341064453125	0.93902587890625
386	0.9423828125	239.340071395724	0.00185394287109375	0.941162109375
387	0.94482421875	239.364471395663	0.00187408447265625	0.9442138671875
388	0.947265625	239.388871395601	0.00189483642578125	0.94696044921875
389	0.94970703125	239.41327139554	0.00191558837890625	0.9490966796875
390	0.9521484375	239.437671395478	0.00193634033203125	0.95123291015625
391	0.95458984375	239.462071395416	0.00195770263671875	0.95367431640625
392	0.95703125	239.486471395355	0.00197906494140625	0.95611572265625
393	0.95947265625	239.510871395293	0.00200103759765625	0.9588623046875
394	0.9619140625	239.535271395232	0.002022705078125	0.960693359375
395	0.96435546875	239.55967139517	0.002044677734375	0.96343994140625
396	0.966796875	239.584071395108	0.002066650390625	0.96588134765625
397	0.96923828125	239.608471395047	0.00208953857421875	0.968017578125
398	0.9716796875	239.632871394985	0.0021124267578125	0.97076416015625
399	0.97412109375	239.657271394924	0.00213531494140625	0.97320556640625
400	0.9765625	239.681671394862	0.00215911865234375	0.97564697265625
401	0.97900390625	239.7060713948	0.0021826171875	0.97808837890625
402	0.9814453125	239.730471394739	0.00220672607421875	0.98052978515625
403	0.98388671875	239.754871394677	0.0022308349609375	0.98297119140625
404	0.986328125	239.779271394616	0.00225494384765625	0.98541259765625
405	0.98876953125	239.803671394554	0.0022796630859375	0.98785400390625
406	0.9912109375	239.828071394492	0.0023046875	0.99029541015625
407	0.99365234375	239.852471394431	0.002330322265625	0.9930419921875
408	0.99609375	239.876871394369	0.00235595703125	0.9954833984375
409	0.99853515625	239.901271394308	0.00238189697265625	0.9979248046875
410	1.0009765625	239.925671394246	0.0024078369140625	1.00067138671875
411	1.00341796875	239.950071394184	0.00243438720703125	1.00311279296875
412	1.005859375	239.974471394123	0.0024609375	1.00494384765625
413	1.00830078125	239.998871394061	0.0024884033203125	1.0076904296875
414	1.0107421875	240.023271393999	0.002515869140625	1.00982666015625
415	1.01318359375	240.047671393938	0.0025439453125	1.01226806640625
416	1.015625	240.072071393876	0.002572021484375	1.0150146484375
417	1.01806640625	240.096471393815	0.0026007080078125	1.01715087890625
418	1.0205078125	240.120871393753	0.0026300048828125	1.01959228515625
419	1.02294921875	240.145271393691	0.0026593017578125	1.02203369140625
420	1.025390625	240.16967139363	0.00268829345703125	1.02447509765625
421	1.02783203125	240.194071393568	0.002718505859375	1.026611328125
422	1.0302734375	240.218471393507	0.0027490234375	1.029052734375
423	1.03271484375	240.242871393445	0.002779541015625	1.03179931640625
424	1.03515625	240.267271393383	0.00281097412109375	1.033935546875
425	1.03759765625	240.291671393322	0.00284271240234375	1.036376953125
426	1.0400390625	240.31607139326	0.00287445068359375	1.0394287109375
427	1.04248046875	240.340471393199	0.002906494140625	1.041259765625
428	1.044921875	240.364871393137	0.0029388427734375	1.04400634765625
429	1.04736328125	240.389271393075	0.00297210693359375	1.0467529296875
430	1.0498046875	240.413671393014	0.00300567626953125	1.04888916015625
431	1.05224609375	240.438071392952	0.00303955078125	1.0516357421875
432	1.0546875	240.462471392891	0.00307373046875	1.05438232421875
433	1.05712890625	240.486871392829	0.00310882568359375	1.0565185546875
434	1.0595703125	240.511271392767	0.0031439208984375	1.0589599609375
435	1.06201171875	240.535671392706	0.00317962646484375	1.06109619140625
436	1.064453125	240.560071392644	0.00321502685546875	1.063232421875
437	1.06689453125	240.584471392583	0.00325164794921875	1.06597900390625
438	1.0693359375	240.608871392521	0.00328826904296875	1.06842041015625
439	1.07177734375	240.633271392459	0.00332550048828125	1.070556640625
440	1.07421875	240.657671392398	0.003363037109375	1.07269287109375
441	1.07666015625	240.682071392336	0.00340087890625	1.07574462890625
442	1.0791015625	240.706471392275	0.00343902587890625	1.07757568359375
443	1.08154296875	240.730871392213	0.003477783203125	1.08062744140625
444	1.083984375	240.755271392151	0.00351654052734375	1.0833740234375
445	1.08642578125	240.77967139209	0.00355560302734375	1.085205078125
446	1.0888671875	240.804071392028	0.003594970703125	1.087646484375
447	1.09130859375	240.828471391967	0.00363433837890625	1.09039306640625
448	1.09375	240.852871391905	0.0036737060546875	1.0919189453125
449	1.09619140625	240.877271391843	0.0037139892578125	1.0955810546875
450	1.0986328125	240.901671391782	0.00375396728515625	1.097412109375
451	1.10107421875	240.92607139172	0.0037939453125	1.099853515625
452	1.103515625	240.950471391659	0.0038336181640625	1.1029052734375
453	1.10595703125	240.974871391597	0.00387359619140625	1.104736328125
454	1.1083984375	240.999271391535	0.00391326904296875	1.10748291015625
455	1.11083984375	241.023671391474	0.00395263671875	1.1102294921875
456	1.11328125	241.048071391412	0.00399169921875	1.11236572265625
457	1.11572265625	241.072471391351	0.00403076171875	1.11480712890625
458	1.1181640625	241.096871391289	0.0040692138671875	1.11663818359375
459	1.12060546875	241.121271391227	0.0041070556640625	1.11907958984375
460	1.123046875	241.145671391166	0.004144287109375	1.12213134765625
461	1.12548828125	241.170071391104	0.004180908203125	1.124267578125
462	1.1279296875	241.194471391042	0.00421722412109375	1.12701416015625
463	1.13037109375	241.218871390981	0.00425262451171875	1.129150390625
464	1.1328125	241.243271390919	0.00428741455078125	1.131591796875
465	1.13525390625	241.267671390858	0.0043212890625	1.13433837890625
466	1.1376953125	241.292071390796	0.00435455322265625	1.136474609375
467	1.14013671875	241.316471390734	0.00438720703125	1.138916015625
468	1.142578125	241.340871390673	0.00441864013671875	1.141357421875
469	1.14501953125	241.365271390611	0.004449462890625	1.14410400390625
470	1.1474609375	241.38967139055	0.00447967529296875	1.146240234375
471	1.14990234375	241.414071390488	0.00450897216796875	1.148681640625
472	1.15234375	241.438471390426	0.004537353515625	1.151123046875
473	1.15478515625	241.462871390365	0.0045654296875	1.1541748046875
474	1.1572265625	241.487271390303	0.00459259033203125	1.15692138671875
475	1.15966796875	241.511671390242	0.004619140625	1.15814208984375
476	1.162109375	241.53607139018	0.004644775390625	1.16058349609375
477	1.16455078125	241.560471390118	0.00467010498046875	1.1639404296875
478	1.1669921875	241.584871390057	0.00469482421875	1.16607666015625
479	1.16943359375	241.609271389995	0.00471893310546875	1.168212890625
480	1.171875	241.633671389934	0.00474273681640625	1.17095947265625
481	1.17431640625	241.658071389872	0.004765625	1.173095703125
482	1.1767578125	241.68247138981	0.00478790283203125	1.17584228515625
483	1.17919921875	241.706871389749	0.00480987548828125	1.17828369140625
484	1.181640625	241.731271389687	0.00483123779296875	1.180419921875
485	1.18408203125	241.755671389626	0.004852294921875	1.182861328125
486	1.1865234375	241.780071389564	0.004873046875	1.185302734375
487	1.18896484375	241.804471389502	0.0048931884765625	1.187744140625
488	1.19140625	241.828871389441	0.0049127197265625	1.19049072265625
489	1.19384765625	241.853271389379	0.0049322509765625	1.192626953125
490	1.1962890625	241.877671389318	0.004951171875	1.195068359375
491	1.19873046875	241.902071389256	0.00496978759765625	1.1981201171875
492	1.201171875	241.926471389194	0.00498779296875	1.2005615234375
493	1.19873046875	241.950871389133	0.00496368408203125	1.1981201171875
494	1.1962890625	241.975271389071	0.00493896484375	1.19537353515625
495	1.19384765625	241.99967138901	0.0049139404296875	1.19293212890625
496	1.19140625	242.024071388948	0.0048876953125	1.19049072265625
497	1.18896484375	242.048471388886	0.00486114501953125	1.187744140625
498	1.1865234375	242.072871388825	0.004833984375	1.185302734375
499	1.18408203125	242.097271388763	0.004805908203125	1.182861328125
500	1.181640625	242.121671388702	0.00477691650390625	1.180419921875
501	1.17919921875	242.14607138864	0.00474700927734375	1.177978515625
502	1.1767578125	242.170471388578	0.0047161865234375	1.17584228515625
503	1.17431640625	242.194871388517	0.0046844482421875	1.17340087890625
504	1.171875	242.219271388455	0.00465179443359375	1.170654296875
505	1.16943359375	242.243671388394	0.004617919921875	1.16851806640625
506	1.1669921875	242.268071388332	0.00458282470703125	1.16607666015625
507	1.16455078125	242.29247138827	0.0045465087890625	1.16363525390625
508	1.162109375	242.316871388209	0.00450897216796875	1.160888671875
509	1.15966796875	242.341271388147	0.00447021484375	1.15875244140625
510	1.1572265625	242.365671388086	0.004429931640625	1.15570068359375
511	1.15478515625	242.390071388024	0.0043878173828125	1.153564453125
512	1.15234375	242.414471387962	0.004344482421875	1.15142822265625
513	1.14990234375	242.438871387901	0.00429962158203125	1.14898681640625
514	1.1474609375	242.463271387839	0.00425323486328125	1.1468505859375
515	1.14501953125	242.487671387777	0.004205322265625	1.14410400390625
516	1.142578125	242.512071387716	0.00415618896484375	1.141357421875
517	1.14013671875	242.536471387654	0.0041058349609375	1.138916015625
518	1.1376953125	242.560871387593	0.00405364990234375	1.1370849609375
519	1.13525390625	242.585271387531	0.00400054931640625	1.134033203125
520	1.1328125	242.609671387469	0.00394622802734375	1.131591796875
521	1.13037109375	242.634071387408	0.00389129638671875	1.12945556640625
522	1.1279296875	242.658471387346	0.00383575439453125	1.12701416015625
523	1.12548828125	242.682871387285	0.0037799072265625	1.124267578125
524	1.123046875	242.707271387223	0.00372344970703125	1.12213134765625
525	1.12060546875	242.731671387161	0.00366668701171875	1.12030029296875
526	1.1181640625	242.7560713871	0.0036102294921875	1.1175537109375
527	1.11572265625	242.780471387038	0.003553466796875	1.114501953125
528	1.11328125	242.804871386977	0.0034967041015625	1.11236572265625
529	1.11083984375	242.829271386915	0.00344085693359375	1.10992431640625
530	1.1083984375	242.853671386853	0.00338470458984375	1.107177734375
531	1.10595703125	242.878071386792	0.0033294677734375	1.104736328125
532	1.103515625	242.90247138673	0.0032745361328125	1.10260009765625
533	1.10107421875	242.926871386669	0.00322021484375	1.10015869140625
534	1.0986328125	242.951271386607	0.0031658935546875	1.097412109375
535	1.09619140625	242.975671386545	0.0031121826171875	1.094970703125
536	1.09375	243.000071386484	0.00305908203125	1.09283447265625
537	1.09130859375	243.024471386422	0.00300689697265625	1.090087890625
538	1.0888671875	243.048871386361	0.00295501708984375	1.0882568359375
539	1.08642578125	243.073271386299	0.00290435791015625	1.08551025390625
540	1.083984375	243.097671386237	0.00285400390625	1.0833740234375
541	1.08154296875	243.122071386176	0.002803955078125	1.0809326171875
542	1.0791015625	243.146471386114	0.0027545166015625	1.07757568359375
543	1.07666015625	243.170871386053	0.00270599365234375	1.075439453125
544	1.07421875	243.195271385991	0.00265777587890625	1.07330322265625
545	1.07177734375	243.219671385929	0.00261077880859375	1.07086181640625
546	1.0693359375	243.244071385868	0.0025640869140625	1.068115234375
547	1.06689453125	243.268471385806	0.0025177001953125	1.06597900390625
548	1.064453125	243.292871385745	0.0024725341796875	1.06353759765625
549	1.06201171875	243.317271385683	0.002427978515625	1.06109619140625
550	1.0595703125	243.341671385621	0.00238372802734375	1.05865478515625
551	1.05712890625	243.36607138556	0.002340087890625	1.0565185546875
552	1.0546875	243.390471385498	0.00229766845703125	1.05377197265625
553	1.05224609375	243.414871385437	0.00225555419921875	1.0516357421875
554	1.0498046875	243.439271385375	0.00221435546875	1.0491943359375
555	1.04736328125	243.463671385313	0.0021734619140625	1.04705810546875
556	1.044921875	243.488071385252	0.0021331787109375	1.043701171875
557	1.04248046875	243.51247138519	0.002093505859375	1.04156494140625
558	1.0400390625	243.536871385129	0.00205474853515625	1.03912353515625
559	1.03759765625	243.561271385067	0.0020166015625	1.0357666015625
560	1.03515625	243.585671385005	0.00197906494140625	1.0345458984375
561	1.03271484375	243.610071384944	0.00194244384765625	1.03179931640625
562	1.0302734375	243.634471384882	0.0019061279296875	1.029052734375
563	1.02783203125	243.65887138482	0.00187103271484375	1.0272216796875
564	1.025390625	243.683271384759	0.0018359375	1.02447509765625
565	1.02294921875	243.707671384697	0.0018017578125	1.0223388671875
566	1.0205078125	243.732071384636	0.00176788330078125	1.01898193359375
567	1.01806640625	243.756471384574	0.001734619140625	1.01715087890625
568	1.015625	243.780871384512	0.0017022705078125	1.0150146484375
569	1.01318359375	243.805271384451	0.0016705322265625	1.0125732421875
570	1.0107421875	243.829671384389	0.00163909912109375	1.00982666015625
571	1.00830078125	243.854071384328	0.00160858154296875	1.00738525390625
572	1.005859375	243.878471384266	0.001578369140625	1.00494384765625
573	1.00341796875	243.902871384204	0.00154876708984375	1.0028076171875
574	1.0009765625	243.927271384143	0.00152008056640625	1.00006103515625
575	0.99853515625	243.951671384081	0.00149169921875	0.99761962890625
576	0.99609375	243.97607138402	0.00146392822265625	0.994873046875
577	0.99365234375	244.000471383958	0.0014361572265625	0.992431640625
578	0.9912109375	244.024871383896	0.0014093017578125	0.99029541015625
579	0.98876953125	244.049271383835	0.00138336181640625	0.98785400390625
580	0.986328125	244.073671383773	0.0013580322265625	0.98541259765625
581	0.98388671875	244.098071383712	0.0013330078125	0.98297119140625
582	0.9814453125	244.12247138365	0.00130889892578125	0.980224609375
583	0.97900390625	244.146871383588	0.00128448486328125	0.97869873046875
584	0.9765625	244.171271383527	0.00126068115234375	0.97564697265625
585	0.97412109375	244.195671383465	0.00123779296875	0.97320556640625
586	0.9716796875	244.220071383404	0.00121490478515625	0.9710693359375
587	0.96923828125	244.244471383342	0.00119232177734375	0.9686279296875
588	0.966796875	244.26887138328	0.00117034912109375	0.96588134765625
589	0.96435546875	244.293271383219	0.00114898681640625	0.9637451171875
590	0.9619140625	244.317671383157	0.0011285400390625	0.96099853515625
591	0.95947265625	244.342071383096	0.0011083984375	0.95916748046875
592	0.95703125	244.366471383034	0.00108856201171875	0.95611572265625
593	0.95458984375	244.390871382972	0.0010687255859375	0.9539794921875
594	0.9521484375	244.415271382911	0.0010491943359375	0.95123291015625
595	0.94970703125	244.439671382849	0.00103057861328125	0.9490966796875
596	0.947265625	244.464071382788	0.001011962890625	0.946044921875
597	0.94482421875	244.488471382726	0.0009942626953125	0.94390869140625
598	0.9423828125	244.512871382664	0.0009765625	0.941162109375
599	0.93994140625	244.537271382603	0.00095916748046875	0.93902587890625
600	0.9375	244.561671382541	0.0009423828125	0.93658447265625
601	0.93505859375	244.58607138248	0.00092559814453125	0.93414306640625
602	0.9326171875	244.610471382418	0.000909423828125	0.93109130859375
603	0.93017578125	244.634871382356	0.0008935546875	0.928955078125
604	0.927734375	244.659271382295	0.0008782958984375	0.92681884765625
605	0.92529296875	244.683671382233	0.00086273193359375	0.924072265625
606	0.9228515625	244.708071382172	0.000848388671875	0.92193603515625
607	0.92041015625	244.73247138211	0.000833740234375	0.9197998046875
608	0.91796875	244.756871382048	0.0008197021484375	0.91705322265625
609	0.91552734375	244.781271381987	0.0008056640625	0.91461181640625
610	0.9130859375	244.805671381925	0.000792236328125	0.9124755859375
611	0.91064453125	244.830071381863	0.00077880859375	0.90972900390625
612	0.908203125	244.854471381802	0.00076568603515625	0.906982421875
613	0.90576171875	244.87887138174	0.00075286865234375	0.9051513671875
614	0.9033203125	244.903271381679	0.00074066162109375	0.9027099609375
615	0.90087890625	244.927671381617	0.000728759765625	0.9002685546875
616	0.8984375	244.952071381555	0.000716552734375	0.89752197265625
617	0.89599609375	244.976471381494	0.00070587158203125	0.89508056640625
618	0.8935546875	245.000871381432	0.000694580078125	0.89263916015625
619	0.89111328125	245.025271381371	0.00068267822265625	0.8905029296875
620	0.888671875	245.049671381309	0.00067138671875	0.88775634765625
621	0.88623046875	245.074071381247	0.00066009521484375	0.8856201171875
622	0.8837890625	245.098471381186	0.0006494140625	0.8831787109375
623	0.88134765625	245.122871381124	0.0006396484375	0.88043212890625
624	0.87890625	245.147271381063	0.00062957763671875	0.8782958984375
625	0.87646484375	245.171671381001	0.0006195068359375	0.87554931640625
626	0.8740234375	245.196071380939	0.0006097412109375	0.87310791015625
627	0.87158203125	245.220471380878	0.000599365234375	0.87066650390625
628	0.869140625	245.244871380816	0.000589599609375	0.86822509765625
629	0.86669921875	245.269271380755	0.00058013916015625	0.865478515625
630	0.8642578125	245.293671380693	0.0005706787109375	0.8636474609375
631	0.86181640625	245.318071380631	0.0005621337890625	0.86090087890625
632	0.859375	245.34247138057	0.00055328369140625	0.858154296875
633	0.85693359375	245.366871380508	0.0005450439453125	0.85662841796875
634	0.8544921875	245.391271380447	0.00053680419921875	0.853271484375
635	0.85205078125	245.415671380385	0.000528564453125	0.85113525390625
636	0.849609375	245.440071380323	0.00052032470703125	0.8489990234375
637	0.84716796875	245.464471380262	0.00051239013671875	0.84625244140625
638	0.8447265625	245.4888713802	0.0005047607421875	0.843505859375
639	0.84228515625	245.513271380139	0.00049658203125	0.84136962890625
640	0.83984375	245.537671380077	0.000488922119140625	0.8392333984375
641	0.83740234375	245.562071380015	0.00048052978515625	0.8367919921875
642	0.8349609375	245.586471379954	0.00047320556640625	0.8343505859375
643	0.83251953125	245.610871379892	0.0004659423828125	0.8319091796875
644	0.830078125	245.635271379831	0.000458892822265625	0.82916259765625
645	0.82763671875	245.659671379769	0.0004522705078125	0.826416015625
646	0.8251953125	245.684071379707	0.000445587158203125	0.82427978515625
647	0.82275390625	245.708471379646	0.00043896484375	0.82183837890625
648	0.8203125	245.732871379584	0.00043212890625	0.81939697265625
649	0.81787109375	245.757271379523	0.00042535400390625	0.8172607421875
650	0.8154296875	245.781671379461	0.00041900634765625	0.814208984375
651	0.81298828125	245.806071379399	0.000412750244140625	0.8123779296875
652	0.810546875	245.830471379338	0.00040673828125	0.81024169921875
653	0.80810546875	245.854871379276	0.00040020751953125	0.80718994140625
654	0.8056640625	245.879271379215	0.0003941650390625	0.804443359375
655	0.80322265625	245.903671379153	0.000387603759765625	0.8026123046875
656	0.80078125	245.928071379091	0.00038092041015625	0.799560546875
657	0.79833984375	245.95247137903	0.000375152587890625	0.7977294921875
658	0.7958984375	245.976871378968	0.000369781494140625	0.7952880859375
659	0.79345703125	246.001271378906	0.000364593505859375	0.7928466796875
660	0.791015625	246.025671378845	0.00035894775390625	0.7904052734375
661	0.78857421875	246.050071378783	0.000353424072265625	0.7879638671875
662	0.7861328125	246.074471378722	0.000347808837890625	0.7855224609375
663	0.78369140625	246.09887137866	0.000342529296875	0.7830810546875
664	0.78125	246.123271378598	0.0003377685546875	0.78033447265625
665	0.77880859375	246.147671378537	0.00033245849609375	0.77789306640625
666	0.7763671875	246.172071378475	0.000327362060546875	0.77606201171875
667	0.77392578125	246.196471378414	0.000322540283203125	0.7733154296875
668	0.771484375	246.220871378352	0.0003175048828125	0.77056884765625
669	0.76904296875	246.24527137829	0.000312957763671875	0.76873779296875
670	0.7666015625	246.269671378229	0.000308135986328125	0.76568603515625
671	0.76416015625	246.294071378167	0.000304046630859375	0.76416015625
672	0.76171875	246.318471378106	0.000300079345703125	0.7611083984375
673	0.75927734375	246.342871378044	0.000295745849609375	0.75836181640625
674	0.7568359375	246.367271377982	0.000291107177734375	0.75653076171875
675	0.75439453125	246.391671377921	0.000286590576171875	0.75439453125
676	0.751953125	246.416071377859	0.00028216552734375	0.75164794921875
677	0.74951171875	246.440471377798	0.000277740478515625	0.749298095703125
678	0.7470703125	246.464871377736	0.0002733154296875	0.746826171875
679	0.74462890625	246.489271377674	0.000269744873046875	0.744354248046875
680	0.7421875	246.513671377613	0.00026556396484375	0.74188232421875
681	0.73974609375	246.538071377551	0.000261505126953125	0.739532470703125
682	0.7373046875	246.56247137749	0.00025762939453125	0.737030029296875
683	0.73486328125	246.586871377428	0.0002545166015625	0.734619140625
684	0.732421875	246.611271377366	0.000250335693359375	0.732208251953125
685	0.72998046875	246.635671377305	0.000246429443359375	0.729766845703125
686	0.7275390625	246.660071377243	0.0002423095703125	0.727325439453125
687	0.72509765625	246.684471377182	0.000238739013671875	0.724884033203125
688	0.72265625	246.70887137712	0.00023492431640625	0.722442626953125
689	0.72021484375	246.733271377058	0.00023150634765625	0.720001220703125
690	0.7177734375	246.757671376997	0.00022784423828125	0.717559814453125
691	0.71533203125	246.782071376935	0.00022418212890625	0.715118408203125
692	0.712890625	246.806471376874	0.00022149658203125	0.712677001953125
693	0.71044921875	246.830871376812	0.000217864990234375	0.710205078125
694	0.7080078125	246.85527137675	0.000214752197265625	0.707794189453125
695	0.70556640625	246.879671376689	0.00021173095703125	0.705352783203125
696	0.703125	246.904071376627	0.000208221435546875	0.702911376953125
697	0.70068359375	246.928471376566	0.000204925537109375	0.700531005859375
698	0.6982421875	246.952871376504	0.00020172119140625	0.69805908203125
699	0.69580078125	246.977271376442	0.00019830322265625	0.695587158203125
700	0.693359375	247.001671376381	0.000195281982421875	0.693145751953125
701	0.69091796875	247.026071376319	0.000192596435546875	0.690765380859375
702	0.6884765625	247.050471376258	0.00018939208984375	0.688262939453125
703	0.68603515625	247.074871376196	0.00018658447265625	0.685821533203125
704	0.68359375	247.099271376134	0.00018341064453125	0.683349609375
705	0.68115234375	247.123671376073	0.000180999755859375	0.680938720703125
706	0.6787109375	247.148071376011	0.000178314208984375	0.678558349609375
707	0.67626953125	247.172471375949	0.000175323486328125	0.676055908203125
708	0.673828125	247.196871375888	0.00017236328125	0.673675537109375
709	0.67138671875	247.221271375826	0.000169769287109375	0.671234130859375
710	0.6689453125	247.245671375765	0.000167388916015625	0.6688232421875
711	0.66650390625	247.270071375703	0.000164459228515625	0.66632080078125
712	0.6640625	247.294471375641	0.00016229248046875	0.663909912109375
713	0.66162109375	247.31887137558	0.000159820556640625	0.66143798828125
714	0.6591796875	247.343271375518	0.00015753173828125	0.6590576171875
715	0.65673828125	247.367671375457	0.000154998779296875	0.656585693359375
716	0.654296875	247.392071375395	0.000152862548828125	0.654144287109375
717	0.65185546875	247.416471375333	0.000150604248046875	0.651702880859375
718	0.6494140625	247.440871375272	0.00014825439453125	0.649261474609375
719	0.64697265625	247.46527137521	0.00014581298828125	0.6468505859375
720	0.64453125	247.489671375149	0.0001436767578125	0.644439697265625
721	0.64208984375	247.514071375087	0.00014141845703125	0.64190673828125
722	0.6396484375	247.538471375025	0.0001392822265625	0.63946533203125
723	0.63720703125	247.562871374964	0.000136962890625	0.6370849609375
724	0.634765625	247.587271374902	0.000135162353515625	0.634613037109375
725	0.63232421875	247.611671374841	0.000133056640625	0.632232666015625
726	0.6298828125	247.636071374779	0.0001312255859375	0.629791259765625
727	0.62744140625	247.660471374717	0.000128875732421875	0.627349853515625
728	0.625	247.684871374656	0.000126617431640625	0.624969482421875
729	0.62255859375	247.709271374594	0.0001246337890625	0.6224365234375
730	0.6201171875	247.733671374533	0.000122802734375	0.619964599609375
731	0.61767578125	247.758071374471	0.000121063232421875	0.617523193359375
732	0.615234375	247.782471374409	0.000119384765625	0.6151123046875
733	0.61279296875	247.806871374348	0.000117523193359375	0.612701416015625
734	0.6103515625	247.831271374286	0.00011517333984375	0.6102294921875
735	0.60791015625	247.855671374225	0.000113525390625	0.6077880859375
736	0.60546875	247.880071374163	0.000111602783203125	0.6053466796875
737	0.60302734375	247.904471374101	0.00010980224609375	0.6029052734375
738	0.6005859375	247.92887137404	0.0001082763671875	0.600494384765625
739	0.59814453125	247.953271373978	0.000106597900390625	0.5980224609375
740	0.595703125	247.977671373917	0.0001038818359375	0.595611572265625
741	0.59326171875	248.002071373855	0.00010223388671875	0.5931396484375
742	0.5908203125	248.026471373793	0.00010089111328125	0.590728759765625
743	0.58837890625	248.050871373732	9.89990234375E-05	0.58831787109375
744	0.5859375	248.07527137367	9.7442626953125E-05	0.58587646484375
745	0.58349609375	248.099671373609	9.619140625E-05	0.583404541015625
746	0.5810546875	248.124071373547	9.43603515625E-05	0.5809326171875
747	0.57861328125	248.148471373485	9.295654296875E-05	0.57855224609375
748	0.576171875	248.172871373424	9.1461181640625E-05	0.575927734375
749	0.57373046875	248.197271373362	8.9935302734375E-05	0.57354736328125
750	0.5712890625	248.221671373301	8.88671875E-05	0.57110595703125
751	0.56884765625	248.246071373239	8.734130859375E-05	0.568634033203125
752	0.56640625	248.270471373177	8.5845947265625E-05	0.566192626953125
753	0.56396484375	248.294871373116	8.416748046875E-05	0.563720703125
754	0.5615234375	248.319271373054	8.2977294921875E-05	0.561309814453125
755	0.55908203125	248.343671372993	8.172607421875E-05	0.55889892578125
756	0.556640625	248.368071372931	8.06884765625E-05	0.556427001953125
757	0.55419921875	248.392471372869	7.952880859375E-05	0.554046630859375
758	0.5517578125	248.416871372808	7.8094482421875E-05	0.551605224609375
759	0.54931640625	248.441271372746	7.696533203125E-05	0.54913330078125
760	0.546875	248.465671372684	7.550048828125E-05	0.54669189453125
761	0.54443359375	248.490071372623	7.4462890625E-05	0.544219970703125
762	0.5419921875	248.514471372561	7.36083984375E-05	0.541778564453125
763	0.53955078125	248.5388713725	7.257080078125E-05	0.539337158203125
764	0.537109375	248.563271372438	7.1868896484375E-05	0.536895751953125
765	0.53466796875	248.587671372376	7.0770263671875E-05	0.534515380859375
766	0.5322265625	248.612071372315	6.9793701171875E-05	0.53204345703125
767	0.52978515625	248.636471372253	6.8878173828125E-05	0.52960205078125
768	0.52734375	248.660871372192	6.7657470703125E-05	0.52716064453125
769	0.52490234375	248.68527137213	6.67724609375E-05	0.524749755859375
770	0.5224609375	248.709671372068	6.55517578125E-05	0.52227783203125
771	0.52001953125	248.734071372007	6.4788818359375E-05	0.519866943359375
772	0.517578125	248.758471371945	6.353759765625E-05	0.5174560546875
773	0.51513671875	248.782871371884	6.2469482421875E-05	0.51495361328125
774	0.5126953125	248.807271371822	6.1737060546875E-05	0.5125732421875
775	0.51025390625	248.83167137176	6.09130859375E-05	0.510101318359375
776	0.5078125	248.856071371699	5.9906005859375E-05	0.507659912109375
777	0.50537109375	248.880471371637	5.92041015625E-05	0.505218505859375
778	0.5029296875	248.904871371576	5.8135986328125E-05	0.502777099609375
779	0.50048828125	248.929271371514	5.7403564453125E-05	0.500335693359375
780	0.498046875	248.953671371452	5.62744140625E-05	0.497894287109375
781	0.49560546875	248.978071371391	5.5572509765625E-05	0.495452880859375
782	0.4931640625	249.002471371329	5.4779052734375E-05	0.493011474609375
783	0.49072265625	249.026871371268	5.40771484375E-05	0.490570068359375
784	0.48828125	249.051271371206	5.3253173828125E-05	0.488189697265625
785	0.48583984375	249.075671371144	5.2764892578125E-05	0.48565673828125
786	0.4833984375	249.100071371083	5.16357421875E-05	0.4832763671875
787	0.48095703125	249.124471371021	5.11474609375E-05	0.4808349609375
788	0.478515625	249.14887137096	5.0262451171875E-05	0.478424072265625
789	0.47607421875	249.173271370898	4.95269775390625E-05	0.475982666015625
790	0.4736328125	249.197671370836	4.89501953125E-05	0.473480224609375
791	0.47119140625	249.222071370775	4.8388671875E-05	0.4710693359375
792	0.46875	249.246471370713	4.7332763671875E-05	0.4686279296875
793	0.46630859375	249.270871370652	4.6722412109375E-05	0.46624755859375
794	0.4638671875	249.29527137059	4.58953857421875E-05	0.463714599609375
795	0.46142578125	249.319671370528	4.53460693359375E-05	0.46124267578125
796	0.458984375	249.344071370467	4.42047119140625E-05	0.458831787109375
797	0.45654296875	249.368471370405	4.35394287109375E-05	0.456390380859375
798	0.4541015625	249.392871370344	4.30572509765625E-05	0.4539794921875
799	0.45166015625	249.417271370282	4.26116943359375E-05	0.45159912109375
800	0.44921875	249.44167137022	4.189453125E-05	0.4490966796875
801	0.44677734375	249.466071370159	4.12872314453125E-05	0.44671630859375
802	0.4443359375	249.490471370097	4.08935546875E-05	0.444244384765625
803	0.44189453125	249.514871370036	4.027099609375E-05	0.44183349609375
804	0.439453125	249.539271369974	3.9508056640625E-05	0.4393310546875
805	0.43701171875	249.563671369912	3.8970947265625E-05	0.436920166015625
806	0.4345703125	249.588071369851	3.85711669921875E-05	0.434539794921875
807	0.43212890625	249.612471369789	3.80615234375E-05	0.4320068359375
808	0.4296875	249.636871369727	3.79241943359375E-05	0.429595947265625
809	0.42724609375	249.661271369666	3.7469482421875E-05	0.427154541015625
810	0.4248046875	249.685671369604	3.70574951171875E-05	0.424713134765625
811	0.42236328125	249.710071369543	3.6279296875E-05	0.42230224609375
812	0.419921875	249.734471369481	3.57940673828125E-05	0.419830322265625
813	0.41748046875	249.758871369419	3.5223388671875E-05	0.41741943359375
814	0.4150390625	249.783271369358	3.4765625E-05	0.414947509765625
815	0.41259765625	249.807671369296	3.43505859375E-05	0.412506103515625
816	0.41015625	249.832071369235	3.4027099609375E-05	0.41009521484375
817	0.40771484375	249.856471369173	3.36669921875E-05	0.407623291015625
818	0.4052734375	249.880871369111	3.31756591796875E-05	0.4051513671875
819	0.40283203125	249.90527136905	3.25103759765625E-05	0.402740478515625
820	0.400390625	249.929671368988	3.2159423828125E-05	0.400299072265625
821	0.39794921875	249.954071368927	3.19244384765625E-05	0.397857666015625
822	0.3955078125	249.978471368865	3.14544677734375E-05	0.39544677734375
823	0.39306640625	250.002871368803	3.10760498046875E-05	0.392974853515625
824	0.390625	250.027271368742	3.08197021484375E-05	0.39056396484375
825	0.38818359375	250.05167136868	3.065185546875E-05	0.388153076171875
826	0.3857421875	250.076071368619	3.028564453125E-05	0.38568115234375
827	0.38330078125	250.100471368557	2.97760009765625E-05	0.38323974609375
828	0.380859375	250.124871368495	2.93243408203125E-05	0.380706787109375
829	0.37841796875	250.149271368434	2.88421630859375E-05	0.37835693359375
830	0.3759765625	250.173671368372	2.8680419921875E-05	0.37591552734375
831	0.37353515625	250.198071368311	2.84149169921875E-05	0.37347412109375
832	0.37109375	250.222471368249	2.794189453125E-05	0.3709716796875
833	0.36865234375	250.246871368187	2.77008056640625E-05	0.368621826171875
834	0.3662109375	250.271271368126	2.735595703125E-05	0.36614990234375
835	0.36376953125	250.295671368064	2.69012451171875E-05	0.36376953125
836	0.361328125	250.320071368003	2.6611328125E-05	0.361236572265625
837	0.35888671875	250.344471367941	2.63916015625E-05	0.358856201171875
838	0.3564453125	250.368871367879	2.6300048828125E-05	0.3564453125
839	0.35400390625	250.393271367818	2.63580322265625E-05	0.353973388671875
840	0.3515625	250.417671367756	2.59124755859375E-05	0.35150146484375
841	0.34912109375	250.442071367695	2.55950927734375E-05	0.349090576171875
842	0.3466796875	250.466471367633	2.53448486328125E-05	0.346588134765625
843	0.34423828125	250.490871367571	2.49969482421875E-05	0.34417724609375
844	0.341796875	250.51527136751	2.457275390625E-05	0.341766357421875
845	0.33935546875	250.539671367448	2.44415283203125E-05	0.339324951171875
846	0.3369140625	250.564071367387	2.40875244140625E-05	0.33685302734375
847	0.33447265625	250.588471367325	2.38494873046875E-05	0.33441162109375
848	0.33203125	250.612871367263	2.3773193359375E-05	0.332000732421875
849	0.32958984375	250.637271367202	2.34527587890625E-05	0.3294677734375
850	0.3271484375	250.66167136714	2.30987548828125E-05	0.327117919921875
851	0.32470703125	250.686071367079	2.26715087890625E-05	0.324676513671875
852	0.322265625	250.710471367017	2.24029541015625E-05	0.32220458984375
853	0.31982421875	250.734871366955	2.24822998046875E-05	0.31976318359375
854	0.3173828125	250.759271366894	2.2119140625E-05	0.317352294921875
855	0.31494140625	250.783671366832	2.20703125E-05	0.31488037109375
856	0.3125	250.80807136677	2.1728515625E-05	0.312469482421875
857	0.31005859375	250.832471366709	2.1600341796875E-05	0.31005859375
858	0.3076171875	250.856871366647	2.0623779296875E-05	0.30755615234375
859	0.30517578125	250.881271366586	2.02545166015625E-05	0.305145263671875
860	0.302734375	250.905671366524	1.9964599609375E-05	0.302642822265625
861	0.30029296875	250.930071366462	1.97662353515625E-05	0.300323486328125
862	0.2978515625	250.954471366401	1.95892333984375E-05	0.297821044921875
863	0.29541015625	250.978871366339	1.949462890625E-05	0.295379638671875
864	0.29296875	251.003271366278	1.91650390625E-05	0.292938232421875
865	0.29052734375	251.027671366216	1.88446044921875E-05	0.29046630859375
866	0.2880859375	251.052071366154	1.87835693359375E-05	0.2880859375
867	0.28564453125	251.076471366093	1.8731689453125E-05	0.285614013671875
868	0.283203125	251.100871366031	1.856689453125E-05	0.28314208984375
869	0.28076171875	251.12527136597	1.820068359375E-05	0.280731201171875
870	0.2783203125	251.149671365908	1.78741455078125E-05	0.27825927734375
871	0.27587890625	251.174071365846	1.77337646484375E-05	0.27587890625
872	0.2734375	251.198471365785	1.75384521484375E-05	0.27337646484375
873	0.27099609375	251.222871365723	1.7333984375E-05	0.270965576171875
874	0.2685546875	251.247271365662	1.72576904296875E-05	0.268463134765625
875	0.26611328125	251.2716713656	1.69708251953125E-05	0.266082763671875
876	0.263671875	251.296071365538	1.70196533203125E-05	0.263671875
877	0.26123046875	251.320471365477	1.68853759765625E-05	0.261260986328125
878	0.2587890625	251.344871365415	1.67144775390625E-05	0.258758544921875
879	0.25634765625	251.369271365354	1.6473388671875E-05	0.25634765625
880	0.25390625	251.393671365292	1.630859375E-05	0.253875732421875
881	0.25146484375	251.41807136523	1.6107177734375E-05	0.25146484375
882	0.2490234375	251.442471365169	1.58966064453125E-05	0.248992919921875
883	0.24658203125	251.466871365107	1.5728759765625E-05	0.24652099609375
884	0.244140625	251.491271365046	1.57318115234375E-05	0.244140625
885	0.24169921875	251.515671364984	1.5460205078125E-05	0.24169921875
886	0.2392578125	251.540071364922	1.51641845703125E-05	0.23919677734375
887	0.23681640625	251.564471364861	1.49932861328125E-05	0.23681640625
888	0.234375	251.588871364799	1.47430419921875E-05	0.234344482421875
889	0.23193359375	251.613271364738	1.44195556640625E-05	0.231903076171875
890	0.2294921875	251.637671364676	1.4251708984375E-05	0.229461669921875
891	0.22705078125	251.662071364614	1.41082763671875E-05	0.22705078125
892	0.224609375	251.686471364553	1.39892578125E-05	0.224639892578125
893	0.22216796875	251.710871364491	1.3720703125E-05	0.22216796875
894	0.2197265625	251.73527136443	1.35986328125E-05	0.21978759765625
895	0.21728515625	251.759671364368	1.3421630859375E-05	0.21728515625
896	0.21484375	251.784071364306	1.32415771484375E-05	0.214813232421875
897	0.21240234375	251.808471364245	1.31256103515625E-05	0.21234130859375
898	0.2099609375	251.832871364183	1.29638671875E-05	0.2099609375
899	0.20751953125	251.857271364122	1.27899169921875E-05	0.207550048828125
900	0.205078125	251.88167136406	1.2689208984375E-05	0.205047607421875
901	0.20263671875	251.906071363998	1.25885009765625E-05	0.20263671875
902	0.2001953125	251.930471363937	1.23809814453125E-05	0.2001953125
903	0.19775390625	251.954871363875	1.2115478515625E-05	0.197784423828125
904	0.1953125	251.979271363813	1.19171142578125E-05	0.1953125
905	0.19287109375	252.003671363752	1.18438720703125E-05	0.192901611328125
906	0.1904296875	252.02807136369	1.15325927734375E-05	0.1904296875
907	0.18798828125	252.052471363629	1.12945556640625E-05	0.18798828125
908	0.185546875	252.076871363567	1.11572265625E-05	0.185546875
909	0.18310546875	252.101271363505	1.103515625E-05	0.18316650390625
910	0.1806640625	252.125671363444	1.0797119140625E-05	0.18072509765625
911	0.17822265625	252.150071363382	1.06109619140625E-05	0.178253173828125
912	0.17578125	252.174471363321	1.04522705078125E-05	0.17578125
913	0.17333984375	252.198871363259	1.03240966796875E-05	0.17340087890625
914	0.1708984375	252.223271363197	9.9853515625E-06	0.1708984375
915	0.16845703125	252.247671363136	9.77783203125E-06	0.16845703125
916	0.166015625	252.272071363074	9.65576171875E-06	0.1661376953125
917	0.16357421875	252.296471363013	9.478759765625E-06	0.163604736328125
918	0.1611328125	252.320871362951	9.3658447265625E-06	0.16119384765625
919	0.15869140625	252.345271362889	9.3109130859375E-06	0.158599853515625
920	0.15625	252.369671362828	9.0362548828125E-06	0.15618896484375
921	0.15380859375	252.394071362766	8.94775390625E-06	0.153656005859375
922	0.1513671875	252.418471362705	8.843994140625E-06	0.151275634765625
923	0.14892578125	252.442871362643	8.67919921875E-06	0.148773193359375
924	0.146484375	252.467271362581	8.4686279296875E-06	0.146392822265625
925	0.14404296875	252.49167136252	8.3892822265625E-06	0.14398193359375
926	0.1416015625	252.516071362458	8.2733154296875E-06	0.14154052734375
927	0.13916015625	252.540471362397	8.0718994140625E-06	0.139068603515625
928	0.13671875	252.564871362335	7.9071044921875E-06	0.136627197265625
929	0.13427734375	252.589271362273	7.6995849609375E-06	0.134185791015625
930	0.1318359375	252.613671362212	7.5103759765625E-06	0.131744384765625
931	0.12939453125	252.63807136215	7.36083984375E-06	0.12933349609375
932	0.126953125	252.662471362089	7.269287109375E-06	0.12689208984375
933	0.12451171875	252.686871362027	7.01904296875E-06	0.1243896484375
934	0.1220703125	252.711271361965	6.829833984375E-06	0.121978759765625
935	0.11962890625	252.735671361904	6.707763671875E-06	0.11956787109375
936	0.1171875	252.760071361842	6.5704345703125E-06	0.1170654296875
937	0.11474609375	252.784471361781	6.3690185546875E-06	0.1146240234375
938	0.1123046875	252.808871361719	6.2164306640625E-06	0.11224365234375
939	0.10986328125	252.833271361657	6.024169921875E-06	0.10980224609375
940	0.107421875	252.857671361596	5.9326171875E-06	0.10736083984375
941	0.10498046875	252.882071361534	5.7708740234375E-06	0.10491943359375
942	0.1025390625	252.906471361473	5.584716796875E-06	0.10247802734375
943	0.10009765625	252.930871361411	5.438232421875E-06	0.10003662109375
944	0.09765625	252.955271361349	5.291748046875E-06	0.097625732421875
945	0.09521484375	252.979671361288	5.1849365234375E-06	0.095123291015625
946	0.0927734375	253.004071361226	5.0201416015625E-06	0.09271240234375
947	0.09033203125	253.028471361165	4.83123779296875E-06	0.09027099609375
948	0.087890625	253.052871361103	4.64874267578125E-06	0.087860107421875
949	0.08544921875	253.077271361041	4.58221435546875E-06	0.085418701171875
950	0.0830078125	253.10167136098	4.46685791015625E-06	0.08294677734375
951	0.08056640625	253.126071360918	4.278564453125E-06	0.08062744140625
952	0.078125	253.150471360856	4.1510009765625E-06	0.078125
953	0.07568359375	253.174871360795	3.99322509765625E-06	0.07568359375
954	0.0732421875	253.199271360733	3.86932373046875E-06	0.0732421875
955	0.07080078125	253.223671360672	3.7774658203125E-06	0.070770263671875
956	0.068359375	253.24807136061	3.59771728515625E-06	0.068359375
957	0.06591796875	253.272471360548	3.4625244140625E-06	0.065948486328125
958	0.0634765625	253.296871360487	3.38104248046875E-06	0.06353759765625
959	0.06103515625	253.321271360425	3.255615234375E-06	0.06103515625
960	0.05859375	253.345671360364	3.0731201171875E-06	0.058624267578125
961	0.05615234375	253.370071360302	2.93853759765625E-06	0.05621337890625
962	0.0537109375	253.39447136024	2.82958984375E-06	0.0537109375
963	0.05126953125	253.418871360179	2.7630615234375E-06	0.051300048828125
964	0.048828125	253.443271360117	2.611083984375E-06	0.048974609375
965	0.04638671875	253.467671360056	2.4151611328125E-06	0.0465301513671875
966	0.0439453125	253.492071359994	2.2930908203125E-06	0.0441131591796875
967	0.04150390625	253.516471359932	2.197265625E-06	0.0416595458984375
968	0.0390625	253.540871359871	2.0770263671875E-06	0.039202880859375
969	0.03662109375	253.565271359809	1.95709228515625E-06	0.0367645263671875
970	0.0341796875	253.589671359748	1.732177734375E-06	0.034326171875
971	0.03173828125	253.614071359686	1.6015625E-06	0.0318817138671875
972	0.029296875	253.638471359624	1.52984619140625E-06	0.0294586181640625
973	0.02685546875	253.662871359563	1.397705078125E-06	0.0270263671875
974	0.0244140625	253.687271359501	1.23992919921875E-06	0.0245758056640625
975	0.02197265625	253.71167135944	1.11358642578125E-06	0.02213134765625
976	0.01953125	253.736071359378	1.009521484375E-06	0.0196807861328125
977	0.01708984375	253.760471359316	9.0911865234375E-07	0.0172698974609375
978	0.0146484375	253.784871359255	7.75146484375E-07	0.0147918701171875
979	0.01220703125	253.809271359193	5.853271484375E-07	0.012353515625
980	0.009765625	253.833671359132	4.41253662109375E-07	0.0099212646484375
981	0.00732421875	253.85807135907	3.45733642578125E-07	0.007489013671875
982	0.0048828125	253.882471359008	2.2869873046875E-07	0.00504150390624999
983	0.00244140625	253.906871358947	7.04345703125E-08	0.00260314941406251
984	0	253.931271358885	-9.234619140625E-08	0.000170898437499997
985	0.00244140625	253.955671358824	5.499267578125E-08	0.00261535644531249
986	0.0048828125	253.980071358762	2.25677490234375E-07	0.005078125
987	0.00732421875	254.0044713587	3.60748291015625E-07	0.00747070312500001
988	0.009765625	254.028871358639	4.5001220703125E-07	0.00990905761718749
989	0.01220703125	254.053271358577	5.718994140625E-07	0.0123504638671875
990	0.0146484375	254.077671358516	7.3394775390625E-07	0.0147979736328125
991	0.01708984375	254.102071358454	8.94775390625E-07	0.01722412109375
992	0.01953125	254.126471358392	1.00189208984375E-06	0.019671630859375
993	0.02197265625	254.150871358331	1.1041259765625E-06	0.02210693359375
