Index	Potential applied (V)	Time (s)	WE(1).Current (A)	WE(1).Potential (V)
1	0.00244140625	6.5299349835135	8.4259033203125E-08	0.00257568359375
2	0.0048828125	6.55433498345189	1.9842529296875E-07	0.0050506591796875
3	0.00732421875	6.57873498339029	3.5693359375E-07	0.00745239257812499
4	0.009765625	6.60313498332869	5.1666259765625E-07	0.00989379882812499
5	0.01220703125	6.62753498326708	6.2744140625E-07	0.0123504638671875
6	0.0146484375	6.65193498320548	7.21435546875E-07	0.0147857666015625
7	0.01708984375	6.67633498314387	8.4747314453125E-07	0.0172393798828125
8	0.01953125	6.70073498308227	1.01226806640625E-06	0.0196868896484375
9	0.02197265625	6.72513498302067	1.15234375E-06	0.022113037109375
10	0.0244140625	6.74953498295906	1.25274658203125E-06	0.024554443359375
11	0.02685546875	6.77393498289746	1.34857177734375E-06	0.0270111083984375
12	0.029296875	6.79833498283585	1.51123046875E-06	0.0294342041015625
13	0.03173828125	6.82273498277425	1.67694091796875E-06	0.0319061279296875
14	0.0341796875	6.84713498271265	1.8011474609375E-06	0.0343170166015625
15	0.03662109375	6.87153498265104	1.9146728515625E-06	0.0367523193359375
16	0.0390625	6.89593498258944	2.03826904296875E-06	0.0391937255859375
17	0.04150390625	6.92033498252783	2.22381591796875E-06	0.0416412353515625
18	0.0439453125	6.94473498246623	2.3687744140625E-06	0.044073486328125
19	0.04638671875	6.96913498240463	2.46826171875E-06	0.046533203125
20	0.048828125	6.99353498234302	2.54425048828125E-06	0.0489593505859375
21	0.05126953125	7.01793498228142	2.71942138671875E-06	0.0509033203125
22	0.0537109375	7.04233498221981	2.8729248046875E-06	0.05328369140625
23	0.05615234375	7.06673498215821	3.016357421875E-06	0.055633544921875
24	0.05859375	7.09113498209661	3.1280517578125E-06	0.058563232421875
25	0.06103515625	7.115534982035	3.24066162109375E-06	0.06103515625
26	0.0634765625	7.1399349819734	3.40362548828125E-06	0.0634765625
27	0.06591796875	7.16433498191179	3.558349609375E-06	0.065887451171875
28	0.068359375	7.18873498185019	3.7030029296875E-06	0.068389892578125
29	0.07080078125	7.21313498178858	3.81561279296875E-06	0.070770263671875
30	0.0732421875	7.23753498172698	3.95355224609375E-06	0.0732421875
31	0.07568359375	7.26193498166538	4.12139892578125E-06	0.07568359375
32	0.078125	7.28633498160377	4.322509765625E-06	0.07806396484375
33	0.08056640625	7.31073498154217	4.41802978515625E-06	0.08056640625
34	0.0830078125	7.33513498148056	4.55078125E-06	0.082977294921875
35	0.08544921875	7.35953498141896	4.7015380859375E-06	0.085418701171875
36	0.087890625	7.38393498135736	4.873046875E-06	0.087860107421875
37	0.09033203125	7.40833498129575	5.0262451171875E-06	0.09033203125
38	0.0927734375	7.43273498123415	5.120849609375E-06	0.092742919921875
39	0.09521484375	7.45713498117254	5.2642822265625E-06	0.09521484375
40	0.09765625	7.48153498111094	5.45654296875E-06	0.09759521484375
41	0.10009765625	7.50593498104934	5.62744140625E-06	0.10003662109375
42	0.1025390625	7.53033498098773	5.780029296875E-06	0.10247802734375
43	0.10498046875	7.55473498092613	5.94482421875E-06	0.10491943359375
44	0.107421875	7.57913498086452	6.09130859375E-06	0.107330322265625
45	0.10986328125	7.60353498080292	6.2896728515625E-06	0.109771728515625
46	0.1123046875	7.62793498074132	6.427001953125E-06	0.112213134765625
47	0.11474609375	7.65233498067971	6.512451171875E-06	0.11468505859375
48	0.1171875	7.67673498061811	6.689453125E-06	0.11712646484375
49	0.11962890625	7.7011349805565	6.8572998046875E-06	0.1195068359375
50	0.1220703125	7.7255349804949	6.99462890625E-06	0.1219482421875
51	0.12451171875	7.7499349804333	7.1319580078125E-06	0.1243896484375
52	0.126953125	7.77433498037169	7.269287109375E-06	0.1268310546875
53	0.12939453125	7.79873498031009	7.43408203125E-06	0.129302978515625
54	0.1318359375	7.82313498024848	7.5897216796875E-06	0.13177490234375
55	0.13427734375	7.84753498018688	7.806396484375E-06	0.134185791015625
56	0.13671875	7.87193498012527	7.958984375E-06	0.1365966796875
57	0.13916015625	7.89633498006367	8.02001953125E-06	0.1390380859375
58	0.1416015625	7.92073498000207	8.2305908203125E-06	0.141448974609375
59	0.14404296875	7.94513497994046	8.4320068359375E-06	0.1439208984375
60	0.146484375	7.96953497987886	8.6273193359375E-06	0.1463623046875
61	0.14892578125	7.99393497981725	8.7738037109375E-06	0.1488037109375
62	0.1513671875	8.01833497975565	8.966064453125E-06	0.1512451171875
63	0.15380859375	8.04273497969405	9.1796875E-06	0.153656005859375
64	0.15625	8.06713497963244	9.31396484375E-06	0.1561279296875
65	0.15869140625	8.09153497957084	9.454345703125E-06	0.158599853515625
66	0.1611328125	8.11593497950923	9.58251953125E-06	0.1610107421875
67	0.16357421875	8.14033497944763	9.7900390625E-06	0.163421630859375
68	0.166015625	8.16473497938603	1.00555419921875E-05	0.165924072265625
69	0.16845703125	8.18913497932442	1.02325439453125E-05	0.1683349609375
70	0.1708984375	8.21353497926282	1.03118896484375E-05	0.17083740234375
71	0.17333984375	8.23793497920121	1.04095458984375E-05	0.173187255859375
72	0.17578125	8.26233497913961	1.07177734375E-05	0.1756591796875
73	0.17822265625	8.28673497907801	1.08734130859375E-05	0.17803955078125
74	0.1806640625	8.3111349790164	1.11328125E-05	0.18048095703125
75	0.18310546875	8.3355349789548	1.1279296875E-05	0.18292236328125
76	0.185546875	8.35993497889319	1.14532470703125E-05	0.185394287109375
77	0.18798828125	8.38433497883159	1.16790771484375E-05	0.18780517578125
78	0.1904296875	8.40873497876998	1.1846923828125E-05	0.190277099609375
79	0.19287109375	8.43313497870838	1.1981201171875E-05	0.19268798828125
80	0.1953125	8.45753497864678	1.21246337890625E-05	0.195220947265625
81	0.19775390625	8.48193497858517	1.22528076171875E-05	0.197601318359375
82	0.2001953125	8.50633497852357	1.2506103515625E-05	0.200042724609375
83	0.20263671875	8.53073497846196	1.2713623046875E-05	0.20245361328125
84	0.205078125	8.55513497840036	1.28326416015625E-05	0.204925537109375
85	0.20751953125	8.57953497833876	1.29730224609375E-05	0.207366943359375
86	0.2099609375	8.60393497827715	1.32080078125E-05	0.209747314453125
87	0.21240234375	8.62833497821555	1.33697509765625E-05	0.212249755859375
88	0.21484375	8.65273497815394	1.3653564453125E-05	0.21466064453125
89	0.21728515625	8.67713497809234	1.37939453125E-05	0.217041015625
90	0.2197265625	8.70153497803074	1.4068603515625E-05	0.219573974609375
91	0.22216796875	8.72593497796913	1.43707275390625E-05	0.221923828125
92	0.224609375	8.75033497790753	1.44439697265625E-05	0.224395751953125
93	0.22705078125	8.77473497784592	1.4739990234375E-05	0.226806640625
94	0.2294921875	8.79913497778432	1.51153564453125E-05	0.229248046875
95	0.23193359375	8.82353497772272	1.52679443359375E-05	0.231689453125
96	0.234375	8.84793497766111	1.54815673828125E-05	0.23419189453125
97	0.23681640625	8.87233497759951	1.5704345703125E-05	0.236541748046875
98	0.2392578125	8.8967349775379	1.58599853515625E-05	0.239044189453125
99	0.24169921875	8.9211349774763	1.60675048828125E-05	0.241485595703125
100	0.244140625	8.9455349774147	1.630859375E-05	0.243865966796875
101	0.24658203125	8.96993497735309	1.65802001953125E-05	0.24627685546875
102	0.2490234375	8.99433497729149	1.678466796875E-05	0.248779296875
103	0.25146484375	9.01873497722988	1.69830322265625E-05	0.25128173828125
104	0.25390625	9.04313497716828	1.7266845703125E-05	0.253662109375
105	0.25634765625	9.06753497710667	1.76788330078125E-05	0.256072998046875
106	0.2587890625	9.09193497704507	1.78192138671875E-05	0.258453369140625
107	0.26123046875	9.11633497698347	1.79443359375E-05	0.26092529296875
108	0.263671875	9.14073497692186	1.82708740234375E-05	0.263397216796875
109	0.26611328125	9.16513497686026	1.83380126953125E-05	0.26580810546875
110	0.2685546875	9.18953497679865	1.86370849609375E-05	0.268280029296875
111	0.27099609375	9.21393497673705	1.8927001953125E-05	0.270721435546875
112	0.2734375	9.23833497667545	1.91558837890625E-05	0.273040771484375
113	0.27587890625	9.26273497661384	1.94305419921875E-05	0.27557373046875
114	0.2783203125	9.28713497655224	1.9842529296875E-05	0.27801513671875
115	0.28076171875	9.31153497649063	2.00347900390625E-05	0.2803955078125
116	0.283203125	9.33593497642903	2.03277587890625E-05	0.2828369140625
117	0.28564453125	9.36033497636743	2.0660400390625E-05	0.285308837890625
118	0.2880859375	9.38473497630582	2.0989990234375E-05	0.287750244140625
119	0.29052734375	9.40913497624422	2.13623046875E-05	0.2901611328125
120	0.29296875	9.43353497618261	2.16552734375E-05	0.292572021484375
121	0.29541015625	9.45793497612101	2.17926025390625E-05	0.295013427734375
122	0.2978515625	9.48233497605941	2.2393798828125E-05	0.29742431640625
123	0.30029296875	9.5067349759978	2.2686767578125E-05	0.299896240234375
124	0.302734375	9.5311349759362	2.31292724609375E-05	0.30230712890625
125	0.30517578125	9.55553497587459	2.35992431640625E-05	0.3046875
126	0.3076171875	9.57993497581299	2.39288330078125E-05	0.30718994140625
127	0.31005859375	9.60433497575139	2.42706298828125E-05	0.3095703125
128	0.3125	9.62873497568978	2.467041015625E-05	0.31207275390625
129	0.31494140625	9.65313497562818	2.52288818359375E-05	0.314453125
130	0.3173828125	9.67753497556657	2.54791259765625E-05	0.31689453125
131	0.31982421875	9.70193497550497	2.589111328125E-05	0.319305419921875
132	0.322265625	9.72633497544336	2.6251220703125E-05	0.32171630859375
133	0.32470703125	9.75073497538176	2.67913818359375E-05	0.324188232421875
134	0.3271484375	9.77513497532016	2.7142333984375E-05	0.32659912109375
135	0.32958984375	9.79953497525855	2.75299072265625E-05	0.32904052734375
136	0.33203125	9.82393497519695	2.8033447265625E-05	0.331451416015625
137	0.33447265625	9.84833497513534	2.8546142578125E-05	0.333892822265625
138	0.3369140625	9.87273497507374	2.9119873046875E-05	0.33636474609375
139	0.33935546875	9.89713497501214	2.96142578125E-05	0.338775634765625
140	0.341796875	9.92153497495053	3.00537109375E-05	0.34112548828125
141	0.34423828125	9.94593497488893	3.04656982421875E-05	0.344146728515625
142	0.3466796875	9.97033497482732	3.09906005859375E-05	0.34661865234375
143	0.34912109375	9.99473497476572	3.13140869140625E-05	0.349029541015625
144	0.3515625	10.0191349747041	3.2135009765625E-05	0.35150146484375
145	0.35400390625	10.0435349746425	3.25347900390625E-05	0.353973388671875
146	0.3564453125	10.0679349745809	3.30413818359375E-05	0.356353759765625
147	0.35888671875	10.0923349745193	3.35968017578125E-05	0.35882568359375
148	0.361328125	10.1167349744577	3.4185791015625E-05	0.36126708984375
149	0.36376953125	10.1411349743961	3.482666015625E-05	0.363677978515625
150	0.3662109375	10.1655349743345	3.53485107421875E-05	0.36614990234375
151	0.36865234375	10.1899349742729	3.59161376953125E-05	0.36859130859375
152	0.37109375	10.2143349742113	3.66546630859375E-05	0.37103271484375
153	0.37353515625	10.2387349741497	3.7060546875E-05	0.373443603515625
154	0.3759765625	10.2631349740881	3.76068115234375E-05	0.375885009765625
155	0.37841796875	10.2875349740265	3.83514404296875E-05	0.37835693359375
156	0.380859375	10.3119349739649	3.914794921875E-05	0.3807373046875
157	0.38330078125	10.3363349739033	3.99658203125E-05	0.383209228515625
158	0.3857421875	10.3607349738417	4.06646728515625E-05	0.38568115234375
159	0.38818359375	10.3851349737801	4.13787841796875E-05	0.38812255859375
160	0.390625	10.4095349737185	4.2218017578125E-05	0.3905029296875
161	0.39306640625	10.4339349736568	4.298095703125E-05	0.392974853515625
162	0.3955078125	10.4583349735952	4.37652587890625E-05	0.39544677734375
163	0.39794921875	10.4827349735336	4.45709228515625E-05	0.39788818359375
164	0.400390625	10.507134973472	4.5452880859375E-05	0.400299072265625
165	0.40283203125	10.5315349734104	4.62310791015625E-05	0.40277099609375
166	0.4052734375	10.5559349733488	4.73388671875E-05	0.405181884765625
167	0.40771484375	10.5803349732872	4.81048583984375E-05	0.407562255859375
168	0.41015625	10.6047349732256	4.90570068359375E-05	0.4100341796875
169	0.41259765625	10.629134973164	5.0079345703125E-05	0.412506103515625
170	0.4150390625	10.6535349731024	5.1025390625E-05	0.4149169921875
171	0.41748046875	10.6779349730408	5.218505859375E-05	0.417388916015625
172	0.419921875	10.7023349729792	5.2947998046875E-05	0.419769287109375
173	0.42236328125	10.7267349729176	5.413818359375E-05	0.422210693359375
174	0.4248046875	10.751134972856	5.5023193359375E-05	0.424713134765625
175	0.42724609375	10.7755349727944	5.621337890625E-05	0.4271240234375
176	0.4296875	10.7999349727328	5.72509765625E-05	0.429534912109375
177	0.43212890625	10.8243349726712	5.84716796875E-05	0.432037353515625
178	0.4345703125	10.8487349726096	5.9661865234375E-05	0.4344482421875
179	0.43701171875	10.873134972548	6.0516357421875E-05	0.43682861328125
180	0.439453125	10.8975349724864	6.182861328125E-05	0.43927001953125
181	0.44189453125	10.9219349724248	6.2957763671875E-05	0.4417724609375
182	0.4443359375	10.9463349723632	6.4361572265625E-05	0.44415283203125
183	0.44677734375	10.9707349723016	6.549072265625E-05	0.4466552734375
184	0.44921875	10.99513497224	6.6741943359375E-05	0.4490966796875
185	0.45166015625	11.0195349721783	6.805419921875E-05	0.451507568359375
186	0.4541015625	11.0439349721167	6.9366455078125E-05	0.4539794921875
187	0.45654296875	11.0683349720551	7.086181640625E-05	0.456451416015625
188	0.458984375	11.0927349719935	7.2296142578125E-05	0.45880126953125
189	0.46142578125	11.1171349719319	7.3699951171875E-05	0.461151123046875
190	0.4638671875	11.1415349718703	7.4920654296875E-05	0.4637451171875
191	0.46630859375	11.1659349718087	7.635498046875E-05	0.4661865234375
192	0.46875	11.1903349717471	7.7850341796875E-05	0.46856689453125
193	0.47119140625	11.2147349716855	7.940673828125E-05	0.471038818359375
194	0.4736328125	11.2391349716239	8.099365234375E-05	0.47344970703125
195	0.47607421875	11.2635349715623	8.2733154296875E-05	0.475860595703125
196	0.478515625	11.2879349715007	8.4442138671875E-05	0.47833251953125
197	0.48095703125	11.3123349714391	8.60595703125E-05	0.48077392578125
198	0.4833984375	11.3367349713775	8.7677001953125E-05	0.48321533203125
199	0.48583984375	11.3611349713159	8.94775390625E-05	0.4857177734375
200	0.48828125	11.3855349712543	9.0850830078125E-05	0.48809814453125
201	0.49072265625	11.4099349711927	9.26513671875E-05	0.490570068359375
202	0.4931640625	11.4343349711311	9.4512939453125E-05	0.492919921875
203	0.49560546875	11.4587349710695	9.625244140625E-05	0.495361328125
204	0.498046875	11.4831349710079	9.832763671875E-05	0.49786376953125
205	0.50048828125	11.5075349709463	0.0001002197265625	0.500274658203125
206	0.5029296875	11.5319349708847	0.000102294921875	0.502777099609375
207	0.50537109375	11.5563349708231	0.000103973388671875	0.50518798828125
208	0.5078125	11.5807349707615	0.0001058349609375	0.507598876953125
209	0.51025390625	11.6051349706999	0.00010784912109375	0.510101318359375
210	0.5126953125	11.6295349706382	0.00010986328125	0.512481689453125
211	0.51513671875	11.6539349705766	0.000111846923828125	0.514923095703125
212	0.517578125	11.678334970515	0.000114227294921875	0.517333984375
213	0.52001953125	11.7027349704534	0.000116485595703125	0.519805908203125
214	0.5224609375	11.7271349703918	0.00011834716796875	0.522216796875
215	0.52490234375	11.7515349703302	0.000120941162109375	0.52459716796875
216	0.52734375	11.7759349702686	0.00012335205078125	0.527099609375
217	0.52978515625	11.800334970207	0.000126068115234375	0.529510498046875
218	0.5322265625	11.8247349701454	0.000128204345703125	0.531982421875
219	0.53466796875	11.8491349700838	0.000130645751953125	0.53436279296875
220	0.537109375	11.8735349700222	0.000133148193359375	0.536834716796875
221	0.53955078125	11.8979349699606	0.000135772705078125	0.53924560546875
222	0.5419921875	11.922334969899	0.00013824462890625	0.54168701171875
223	0.54443359375	11.9467349698374	0.00014080810546875	0.54412841796875
224	0.546875	11.9711349697758	0.000143157958984375	0.54656982421875
225	0.54931640625	11.9955349697142	0.0001461181640625	0.548980712890625
226	0.5517578125	12.0199349696526	0.000149078369140625	0.551422119140625
227	0.55419921875	12.044334969591	0.000151611328125	0.5538330078125
228	0.556640625	12.0687349695294	0.000154296875	0.5562744140625
229	0.55908203125	12.0931349694678	0.0001572265625	0.5587158203125
230	0.5615234375	12.1175349694062	0.000159698486328125	0.5611572265625
231	0.56396484375	12.1419349693446	0.000162628173828125	0.563568115234375
232	0.56640625	12.166334969283	0.000165802001953125	0.566009521484375
233	0.56884765625	12.1907349692214	0.000168609619140625	0.5684814453125
234	0.5712890625	12.2151349691597	0.00017169189453125	0.5709228515625
235	0.57373046875	12.2395349690981	0.0001748046875	0.573272705078125
236	0.576171875	12.2639349690365	0.000177978515625	0.57574462890625
237	0.57861328125	12.2883349689749	0.00018109130859375	0.57818603515625
238	0.5810546875	12.3127349689133	0.000184417724609375	0.58062744140625
239	0.58349609375	12.3371349688517	0.00018768310546875	0.5830078125
240	0.5859375	12.3615349687901	0.000190887451171875	0.58544921875
241	0.58837890625	12.3859349687285	0.000194610595703125	0.587860107421875
242	0.5908203125	12.4103349686669	0.000197662353515625	0.59033203125
243	0.59326171875	12.4347349686053	0.000201202392578125	0.59271240234375
244	0.595703125	12.4591349685437	0.000204864501953125	0.59521484375
245	0.59814453125	12.4835349684821	0.000208038330078125	0.59765625
246	0.6005859375	12.5079349684205	0.000211669921875	0.600067138671875
247	0.60302734375	12.5323349683589	0.00021551513671875	0.602508544921875
248	0.60546875	12.5567349682973	0.000219024658203125	0.604949951171875
249	0.60791015625	12.5811349682357	0.0002227783203125	0.607330322265625
250	0.6103515625	12.6055349681741	0.000226470947265625	0.6097412109375
251	0.61279296875	12.6299349681125	0.000230316162109375	0.612213134765625
252	0.615234375	12.6543349680509	0.00023431396484375	0.6146240234375
253	0.61767578125	12.6787349679893	0.000238494873046875	0.617034912109375
254	0.6201171875	12.7031349679277	0.00024267578125	0.61944580078125
255	0.62255859375	12.7275349678661	0.0002471923828125	0.621917724609375
256	0.625	12.7519349678045	0.00025079345703125	0.62432861328125
257	0.62744140625	12.7763349677429	0.000254913330078125	0.626739501953125
258	0.6298828125	12.8007349676813	0.000259185791015625	0.629180908203125
259	0.63232421875	12.8251349676196	0.00026318359375	0.63165283203125
260	0.634765625	12.849534967558	0.000267669677734375	0.634063720703125
261	0.63720703125	12.8739349674964	0.000272125244140625	0.636505126953125
262	0.6396484375	12.8983349674348	0.00027630615234375	0.63885498046875
263	0.64208984375	12.9227349673732	0.000280914306640625	0.64129638671875
264	0.64453125	12.9471349673116	0.0002852783203125	0.64373779296875
265	0.64697265625	12.97153496725	0.000289886474609375	0.646209716796875
266	0.6494140625	12.9959349671884	0.0002945556640625	0.6485595703125
267	0.65185546875	13.0203349671268	0.000299072265625	0.65106201171875
268	0.654296875	13.0447349670652	0.000303741455078125	0.6534423828125
269	0.65673828125	13.0691349670036	0.0003089599609375	0.656585693359375
270	0.6591796875	13.093534966942	0.000313385009765625	0.65899658203125
271	0.66162109375	13.1179349668804	0.000318756103515625	0.66143798828125
272	0.6640625	13.1423349668188	0.00032391357421875	0.66387939453125
273	0.66650390625	13.1667349667572	0.0003287353515625	0.66632080078125
274	0.6689453125	13.1911349666956	0.00033392333984375	0.668792724609375
275	0.67138671875	13.215534966634	0.00033892822265625	0.671173095703125
276	0.673828125	13.2399349665724	0.000344024658203125	0.67364501953125
277	0.67626953125	13.2643349665108	0.000349395751953125	0.676055908203125
278	0.6787109375	13.2887349664492	0.00035498046875	0.678497314453125
279	0.68115234375	13.3131349663876	0.0003604736328125	0.680938720703125
280	0.68359375	13.337534966326	0.00036572265625	0.683380126953125
281	0.68603515625	13.3619349662644	0.0003714599609375	0.685882568359375
282	0.6884765625	13.3863349662028	0.000377166748046875	0.688262939453125
283	0.69091796875	13.4107349661411	0.00038232421875	0.690673828125
284	0.693359375	13.4351349660795	0.000388275146484375	0.693115234375
285	0.69580078125	13.4595349660179	0.000394073486328125	0.69561767578125
286	0.6982421875	13.4839349659563	0.000400177001953125	0.697998046875
287	0.70068359375	13.5083349658947	0.00040582275390625	0.700408935546875
288	0.703125	13.5327349658331	0.000412017822265625	0.702911376953125
289	0.70556640625	13.5571349657715	0.000418121337890625	0.705322265625
290	0.7080078125	13.5815349657099	0.000424530029296875	0.707733154296875
291	0.71044921875	13.6059349656483	0.000430694580078125	0.710205078125
292	0.712890625	13.6303349655867	0.000437713623046875	0.71258544921875
293	0.71533203125	13.6547349655251	0.000443359375	0.715087890625
294	0.7177734375	13.6791349654635	0.000449554443359375	0.717498779296875
295	0.72021484375	13.7035349654019	0.00045611572265625	0.719940185546875
296	0.72265625	13.7279349653403	0.0004627685546875	0.722381591796875
297	0.72509765625	13.7523349652787	0.00046893310546875	0.72479248046875
298	0.7275390625	13.7767349652171	0.00047601318359375	0.727264404296875
299	0.72998046875	13.8011349651555	0.0004827880859375	0.729705810546875
300	0.732421875	13.8255349650939	0.000489410400390625	0.73211669921875
301	0.73486328125	13.8499349650323	0.00049639892578125	0.73455810546875
302	0.7373046875	13.8743349649707	0.0005035400390625	0.736968994140625
303	0.73974609375	13.8987349649091	0.0005108642578125	0.739501953125
304	0.7421875	13.9231349648475	0.0005181884765625	0.741912841796875
305	0.74462890625	13.9475349647859	0.00052520751953125	0.74432373046875
306	0.7470703125	13.9719349647243	0.0005328369140625	0.746795654296875
307	0.74951171875	13.9963349646627	0.00054046630859375	0.749267578125
308	0.751953125	14.020734964601	0.00054779052734375	0.7513427734375
309	0.75439453125	14.0451349645394	0.000555419921875	0.75408935546875
310	0.7568359375	14.0695349644778	0.00056304931640625	0.7562255859375
311	0.75927734375	14.0939349644162	0.0005706787109375	0.758056640625
312	0.76171875	14.1183349643546	0.00057830810546875	0.76080322265625
313	0.76416015625	14.142734964293	0.00058624267578125	0.7635498046875
314	0.7666015625	14.1671349642314	0.000594482421875	0.76629638671875
315	0.76904296875	14.1915349641698	0.0006024169921875	0.76812744140625
316	0.771484375	14.2159349641082	0.00061065673828125	0.77056884765625
317	0.77392578125	14.2403349640466	0.000618896484375	0.7733154296875
318	0.7763671875	14.264734963985	0.00062713623046875	0.77545166015625
319	0.77880859375	14.2891349639234	0.0006353759765625	0.777587890625
320	0.78125	14.3135349638618	0.0006439208984375	0.78033447265625
321	0.78369140625	14.3379349638002	0.00065216064453125	0.782470703125
322	0.7861328125	14.3623349637386	0.0006610107421875	0.78521728515625
323	0.78857421875	14.386734963677	0.00066986083984375	0.7879638671875
324	0.791015625	14.4111349636154	0.00067840576171875	0.79010009765625
325	0.79345703125	14.4355349635538	0.000687255859375	0.79254150390625
326	0.7958984375	14.4599349634922	0.00069671630859375	0.79498291015625
327	0.79833984375	14.4843349634306	0.00070556640625	0.79742431640625
328	0.80078125	14.508734963369	0.00071502685546875	0.79986572265625
329	0.80322265625	14.5331349633074	0.0007244873046875	0.80169677734375
330	0.8056640625	14.5575349632458	0.00073394775390625	0.8050537109375
331	0.80810546875	14.5819349631842	0.0007440185546875	0.8074951171875
332	0.810546875	14.6063349631225	0.00075347900390625	0.80963134765625
333	0.81298828125	14.6307349630609	0.000762939453125	0.81146240234375
334	0.8154296875	14.6551349629993	0.00077239990234375	0.8148193359375
335	0.81787109375	14.6795349629377	0.000782470703125	0.816650390625
336	0.8203125	14.7039349628761	0.000792236328125	0.82000732421875
337	0.82275390625	14.7283349628145	0.00080230712890625	0.8221435546875
338	0.8251953125	14.7527349627529	0.00081298828125	0.8245849609375
339	0.82763671875	14.7771349626913	0.0008233642578125	0.8270263671875
340	0.830078125	14.8015349626297	0.00083343505859375	0.82916259765625
341	0.83251953125	14.8259349625681	0.0008441162109375	0.8319091796875
342	0.8349609375	14.8503349625065	0.00085479736328125	0.8343505859375
343	0.83740234375	14.8747349624449	0.00086578369140625	0.83648681640625
344	0.83984375	14.8991349623833	0.00087615966796875	0.8392333984375
345	0.84228515625	14.9235349623217	0.0008868408203125	0.84136962890625
346	0.8447265625	14.9479349622601	0.0008984375	0.843505859375
347	0.84716796875	14.9723349621985	0.00090911865234375	0.84625244140625
348	0.849609375	14.9967349621369	0.00092071533203125	0.84869384765625
349	0.85205078125	15.0211349620753	0.0009320068359375	0.8514404296875
350	0.8544921875	15.0455349620137	0.000943603515625	0.85418701171875
351	0.85693359375	15.0699349619521	0.00095550537109375	0.85601806640625
352	0.859375	15.0943349618905	0.0009674072265625	0.8587646484375
353	0.86181640625	15.1187349618289	0.0009796142578125	0.86090087890625
354	0.8642578125	15.1431349617673	0.0009912109375	0.863037109375
355	0.86669921875	15.1675349617057	0.00100250244140625	0.8660888671875
356	0.869140625	15.1919349616441	0.00101470947265625	0.867919921875
357	0.87158203125	15.2163349615824	0.0010272216796875	0.87066650390625
358	0.8740234375	15.2407349615208	0.0010394287109375	0.8734130859375
359	0.87646484375	15.2651349614592	0.00105224609375	0.87554931640625
360	0.87890625	15.2895349613976	0.00106536865234375	0.87799072265625
361	0.88134765625	15.313934961336	0.001077880859375	0.88043212890625
362	0.8837890625	15.3383349612744	0.00109130859375	0.88348388671875
363	0.88623046875	15.3627349612128	0.00110504150390625	0.88531494140625
364	0.888671875	15.3871349611512	0.0011181640625	0.8880615234375
365	0.89111328125	15.4115349610896	0.001131591796875	0.89019775390625
366	0.8935546875	15.435934961028	0.00114501953125	0.8929443359375
367	0.89599609375	15.4603349609664	0.0011590576171875	0.8953857421875
368	0.8984375	15.4847349609048	0.00117279052734375	0.89813232421875
369	0.90087890625	15.5091349608432	0.0011871337890625	0.899658203125
370	0.9033203125	15.5335349607816	0.00120147705078125	0.9027099609375
371	0.90576171875	15.55793496072	0.00121612548828125	0.90484619140625
372	0.908203125	15.5823349606584	0.00123046875	0.9075927734375
373	0.91064453125	15.6067349605968	0.00124542236328125	0.909423828125
374	0.9130859375	15.6311349605352	0.0012603759765625	0.91217041015625
375	0.91552734375	15.6555349604736	0.001275634765625	0.91461181640625
376	0.91796875	15.679934960412	0.00129058837890625	0.916748046875
377	0.92041015625	15.7043349603504	0.00130645751953125	0.91949462890625
378	0.9228515625	15.7287349602888	0.001322021484375	0.92193603515625
379	0.92529296875	15.7531349602272	0.00133758544921875	0.92437744140625
380	0.927734375	15.7775349601656	0.001353759765625	0.92681884765625
381	0.93017578125	15.8019349601039	0.00137054443359375	0.928955078125
382	0.9326171875	15.8263349600423	0.00138671875	0.93170166015625
383	0.93505859375	15.8507349599807	0.00140350341796875	0.93505859375
384	0.9375	15.8751349599191	0.0014202880859375	0.9368896484375
385	0.93994140625	15.8995349598575	0.00143768310546875	0.93902587890625
386	0.9423828125	15.9239349597959	0.00145538330078125	0.94146728515625
387	0.94482421875	15.9483349597343	0.0014727783203125	0.94451904296875
388	0.947265625	15.9727349596727	0.001490478515625	0.94635009765625
389	0.94970703125	15.9971349596111	0.00150909423828125	0.94940185546875
390	0.9521484375	16.0215349595495	0.00152679443359375	0.9515380859375
391	0.95458984375	16.0459349594879	0.00154541015625	0.953369140625
392	0.95703125	16.0703349594263	0.00156463623046875	0.955810546875
393	0.95947265625	16.0947349593647	0.0015838623046875	0.95855712890625
394	0.9619140625	16.1191349593031	0.0016033935546875	0.96099853515625
395	0.96435546875	16.1435349592415	0.0016229248046875	0.963134765625
396	0.966796875	16.1679349591799	0.00164276123046875	0.9661865234375
397	0.96923828125	16.1923349591183	0.0016632080078125	0.96832275390625
398	0.9716796875	16.2167349590567	0.00168426513671875	0.9710693359375
399	0.97412109375	16.2411349589951	0.001705322265625	0.9735107421875
400	0.9765625	16.2655349589335	0.00172607421875	0.97625732421875
401	0.97900390625	16.2899349588719	0.001748046875	0.9783935546875
402	0.9814453125	16.3143349588103	0.00177001953125	0.980224609375
403	0.98388671875	16.3387349587487	0.00179229736328125	0.9832763671875
404	0.986328125	16.3631349586871	0.00181488037109375	0.98602294921875
405	0.98876953125	16.3875349586255	0.00183807373046875	0.98785400390625
406	0.9912109375	16.4119349585638	0.001861572265625	0.989990234375
407	0.99365234375	16.4363349585022	0.0018853759765625	0.99273681640625
408	0.99609375	16.4607349584406	0.0019097900390625	0.99517822265625
409	0.99853515625	16.485134958379	0.00193450927734375	0.99761962890625
410	1.0009765625	16.5095349583174	0.001959228515625	0.999755859375
411	1.00341796875	16.5339349582558	0.00198455810546875	1.00250244140625
412	1.005859375	16.5583349581942	0.00201019287109375	1.004638671875
413	1.00830078125	16.5827349581326	0.00203643798828125	1.007080078125
414	1.0107421875	16.607134958071	0.00206329345703125	1.00982666015625
415	1.01318359375	16.6315349580094	0.00209075927734375	1.01226806640625
416	1.015625	16.6559349579478	0.00211822509765625	1.01470947265625
417	1.01806640625	16.6803349578862	0.00214630126953125	1.01715087890625
418	1.0205078125	16.7047349578246	0.00217559814453125	1.019287109375
419	1.02294921875	16.729134957763	0.00220428466796875	1.02203369140625
420	1.025390625	16.7535349577014	0.00223388671875	1.0247802734375
421	1.02783203125	16.7779349576398	0.002264404296875	1.026611328125
422	1.0302734375	16.8023349575782	0.00229461669921875	1.02935791015625
423	1.03271484375	16.8267349575166	0.0023260498046875	1.0321044921875
424	1.03515625	16.851134957455	0.0023577880859375	1.033935546875
425	1.03759765625	16.8755349573934	0.00239013671875	1.03668212890625
426	1.0400390625	16.8999349573318	0.00242279052734375	1.03912353515625
427	1.04248046875	16.9243349572702	0.00245574951171875	1.0418701171875
428	1.044921875	16.9487349572086	0.00248992919921875	1.04400634765625
429	1.04736328125	16.973134957147	0.00252410888671875	1.04644775390625
430	1.0498046875	16.9975349570853	0.0025592041015625	1.04888916015625
431	1.05224609375	17.0219349570237	0.00259490966796875	1.05133056640625
432	1.0546875	17.0463349569621	0.00263092041015625	1.05377197265625
433	1.05712890625	17.0707349569005	0.0026678466796875	1.05621337890625
434	1.0595703125	17.0951349568389	0.002705078125	1.058349609375
435	1.06201171875	17.1195349567773	0.002742919921875	1.0614013671875
436	1.064453125	17.1439349567157	0.00278106689453125	1.06353759765625
437	1.06689453125	17.1683349566541	0.00282012939453125	1.065673828125
438	1.0693359375	17.1927349565925	0.00285980224609375	1.06842041015625
439	1.07177734375	17.2171349565309	0.0028997802734375	1.07086181640625
440	1.07421875	17.2415349564693	0.00294036865234375	1.07330322265625
441	1.07666015625	17.2659349564077	0.00298187255859375	1.075439453125
442	1.0791015625	17.2903349563461	0.003023681640625	1.077880859375
443	1.08154296875	17.3147349562845	0.00306610107421875	1.080322265625
444	1.083984375	17.3391349562229	0.00310882568359375	1.082763671875
445	1.08642578125	17.3635349561613	0.00315216064453125	1.08551025390625
446	1.0888671875	17.3879349560997	0.00319610595703125	1.0882568359375
447	1.09130859375	17.4123349560381	0.00324066162109375	1.0906982421875
448	1.09375	17.4367349559765	0.00328521728515625	1.0931396484375
449	1.09619140625	17.4611349559149	0.00333099365234375	1.09527587890625
450	1.0986328125	17.4855349558533	0.00337677001953125	1.097412109375
451	1.10107421875	17.5099349557917	0.0034228515625	1.10015869140625
452	1.103515625	17.5343349557301	0.0034698486328125	1.10260009765625
453	1.10595703125	17.5587349556685	0.003516845703125	1.104736328125
454	1.1083984375	17.5831349556069	0.00356414794921875	1.10748291015625
455	1.11083984375	17.6075349555452	0.0036114501953125	1.109619140625
456	1.11328125	17.6319349554836	0.0036590576171875	1.112060546875
457	1.11572265625	17.656334955422	0.00370635986328125	1.11419677734375
458	1.1181640625	17.6807349553604	0.0037542724609375	1.11724853515625
459	1.12060546875	17.7051349552988	0.0038018798828125	1.1199951171875
460	1.123046875	17.7295349552372	0.003848876953125	1.121826171875
461	1.12548828125	17.7539349551756	0.00389617919921875	1.12396240234375
462	1.1279296875	17.778334955114	0.00394287109375	1.1273193359375
463	1.13037109375	17.8027349550524	0.00398895263671875	1.12945556640625
464	1.1328125	17.8271349549908	0.004034423828125	1.13189697265625
465	1.13525390625	17.8515349549292	0.00407928466796875	1.13433837890625
466	1.1376953125	17.8759349548676	0.0041229248046875	1.13677978515625
467	1.14013671875	17.900334954806	0.00416595458984375	1.138916015625
468	1.142578125	17.9247349547444	0.00420806884765625	1.141357421875
469	1.14501953125	17.9491349546828	0.00424896240234375	1.14410400390625
470	1.1474609375	17.9735349546212	0.0042889404296875	1.146240234375
471	1.14990234375	17.9979349545596	0.004327392578125	1.14898681640625
472	1.15234375	18.022334954498	0.004365234375	1.15142822265625
473	1.15478515625	18.0467349544364	0.00440155029296875	1.15325927734375
474	1.1572265625	18.0711349543748	0.00443695068359375	1.1566162109375
475	1.15966796875	18.0955349543132	0.004471435546875	1.158447265625
476	1.162109375	18.1199349542516	0.00450469970703125	1.160888671875
477	1.16455078125	18.14433495419	0.0045367431640625	1.163330078125
478	1.1669921875	18.1687349541284	0.00456817626953125	1.16546630859375
479	1.16943359375	18.1931349540667	0.004598388671875	1.168212890625
480	1.171875	18.2175349540051	0.00462799072265625	1.17034912109375
481	1.17431640625	18.2419349539435	0.0046563720703125	1.17340087890625
482	1.1767578125	18.2663349538819	0.00468414306640625	1.1749267578125
483	1.17919921875	18.2907349538203	0.0047113037109375	1.17828369140625
484	1.181640625	18.3151349537587	0.00473724365234375	1.180419921875
485	1.18408203125	18.3395349536971	0.0047625732421875	1.182861328125
486	1.1865234375	18.3639349536355	0.00478729248046875	1.18560791015625
487	1.18896484375	18.3883349535739	0.0048114013671875	1.187744140625
488	1.19140625	18.4127349535123	0.00483489990234375	1.19049072265625
489	1.19384765625	18.4371349534507	0.00485748291015625	1.192626953125
490	1.1962890625	18.4615349533891	0.0048797607421875	1.195068359375
491	1.19873046875	18.4859349533275	0.00490142822265625	1.19781494140625
492	1.201171875	18.5103349532659	0.00492279052734375	1.2005615234375
493	1.19873046875	18.5347349532043	0.00489959716796875	1.197509765625
494	1.1962890625	18.5591349531427	0.0048760986328125	1.19537353515625
495	1.19384765625	18.5835349530811	0.0048516845703125	1.19293212890625
496	1.19140625	18.6079349530195	0.00482696533203125	1.190185546875
497	1.18896484375	18.6323349529579	0.004801025390625	1.187744140625
498	1.1865234375	18.6567349528963	0.00477447509765625	1.18499755859375
499	1.18408203125	18.6811349528347	0.004747314453125	1.18316650390625
500	1.181640625	18.7055349527731	0.00471923828125	1.180419921875
501	1.17919921875	18.7299349527115	0.00469024658203125	1.177978515625
502	1.1767578125	18.7543349526499	0.00466064453125	1.175537109375
503	1.17431640625	18.7787349525883	0.0046295166015625	1.173095703125
504	1.171875	18.8031349525266	0.0045977783203125	1.17095947265625
505	1.16943359375	18.827534952465	0.00456451416015625	1.168212890625
506	1.1669921875	18.8519349524034	0.00453033447265625	1.165771484375
507	1.16455078125	18.8763349523418	0.00449493408203125	1.16363525390625
508	1.162109375	18.9007349522802	0.0044580078125	1.160888671875
509	1.15966796875	18.9251349522186	0.00442047119140625	1.158447265625
510	1.1572265625	18.949534952157	0.00438079833984375	1.1566162109375
511	1.15478515625	18.9739349520954	0.0043402099609375	1.1541748046875
512	1.15234375	18.9983349520338	0.00429779052734375	1.151123046875
513	1.14990234375	19.0227349519722	0.004254150390625	1.148681640625
514	1.1474609375	19.0471349519106	0.00420928955078125	1.14654541015625
515	1.14501953125	19.071534951849	0.00416259765625	1.143798828125
516	1.142578125	19.0959349517874	0.004114990234375	1.1419677734375
517	1.14013671875	19.1203349517258	0.00406585693359375	1.1395263671875
518	1.1376953125	19.1447349516642	0.00401580810546875	1.13616943359375
519	1.13525390625	19.1691349516026	0.00396453857421875	1.134033203125
520	1.1328125	19.193534951541	0.00391265869140625	1.131591796875
521	1.13037109375	19.2179349514794	0.00385955810546875	1.12945556640625
522	1.1279296875	19.2423349514178	0.00380645751953125	1.126708984375
523	1.12548828125	19.2667349513562	0.00375244140625	1.12457275390625
524	1.123046875	19.2911349512946	0.00369842529296875	1.121826171875
525	1.12060546875	19.315534951233	0.00364410400390625	1.119384765625
526	1.1181640625	19.3399349511714	0.00358978271484375	1.11724853515625
527	1.11572265625	19.3643349511098	0.00353515625	1.11480712890625
528	1.11328125	19.3887349510481	0.0034808349609375	1.11236572265625
529	1.11083984375	19.4131349509865	0.003426513671875	1.10992431640625
530	1.1083984375	19.4375349509249	0.0033721923828125	1.107177734375
531	1.10595703125	19.4619349508633	0.0033184814453125	1.10504150390625
532	1.103515625	19.4863349508017	0.00326507568359375	1.102294921875
533	1.10107421875	19.5107349507401	0.0032122802734375	1.099853515625
534	1.0986328125	19.5351349506785	0.00315948486328125	1.097412109375
535	1.09619140625	19.5595349506169	0.00310760498046875	1.094970703125
536	1.09375	19.5839349505553	0.00305572509765625	1.09222412109375
537	1.09130859375	19.6083349504937	0.0030047607421875	1.090087890625
538	1.0888671875	19.6327349504321	0.0029541015625	1.087646484375
539	1.08642578125	19.6571349503705	0.002904052734375	1.0858154296875
540	1.083984375	19.6815349503089	0.00285430908203125	1.08306884765625
541	1.08154296875	19.7059349502473	0.00280517578125	1.080322265625
542	1.0791015625	19.7303349501857	0.00275634765625	1.0784912109375
543	1.07666015625	19.7547349501241	0.002708740234375	1.075439453125
544	1.07421875	19.7791349500625	0.00266082763671875	1.07330322265625
545	1.07177734375	19.8035349500009	0.0026141357421875	1.070556640625
546	1.0693359375	19.8279349499393	0.00256805419921875	1.068115234375
547	1.06689453125	19.8523349498777	0.0025225830078125	1.06658935546875
548	1.064453125	19.8767349498161	0.0024774169921875	1.063232421875
549	1.06201171875	19.9011349497545	0.00243316650390625	1.0614013671875
550	1.0595703125	19.9255349496929	0.00238922119140625	1.058349609375
551	1.05712890625	19.9499349496313	0.00234588623046875	1.05682373046875
552	1.0546875	19.9743349495697	0.002303466796875	1.0540771484375
553	1.05224609375	19.998734949508	0.00226104736328125	1.051025390625
554	1.0498046875	20.0231349494464	0.0022198486328125	1.04888916015625
555	1.04736328125	20.0475349493848	0.002178955078125	1.04644775390625
556	1.044921875	20.0719349493232	0.0021392822265625	1.04400634765625
557	1.04248046875	20.0963349492616	0.002099609375	1.041259765625
558	1.0400390625	20.1207349492	0.00206024169921875	1.03912353515625
559	1.03759765625	20.1451349491384	0.002021484375	1.036376953125
560	1.03515625	20.1695349490768	0.0019842529296875	1.0345458984375
561	1.03271484375	20.1939349490152	0.001947021484375	1.0321044921875
562	1.0302734375	20.2183349489536	0.00191070556640625	1.0296630859375
563	1.02783203125	20.242734948892	0.00187469482421875	1.02691650390625
564	1.025390625	20.2671349488304	0.001839599609375	1.024169921875
565	1.02294921875	20.2915349487688	0.0018048095703125	1.021728515625
566	1.0205078125	20.3159349487072	0.00177093505859375	1.01959228515625
567	1.01806640625	20.3403349486456	0.00173736572265625	1.016845703125
568	1.015625	20.364734948584	0.0017041015625	1.01470947265625
569	1.01318359375	20.3891349485224	0.0016717529296875	1.011962890625
570	1.0107421875	20.4135349484608	0.00163970947265625	1.0101318359375
571	1.00830078125	20.4379349483992	0.00160858154296875	1.00738525390625
572	1.005859375	20.4623349483376	0.0015777587890625	1.00555419921875
573	1.00341796875	20.486734948276	0.0015478515625	1.00311279296875
574	1.0009765625	20.5111349482144	0.0015185546875	1.00006103515625
575	0.99853515625	20.5355349481528	0.00148956298828125	0.9979248046875
576	0.99609375	20.5599349480912	0.001461181640625	0.9954833984375
577	0.99365234375	20.5843349480296	0.00143341064453125	0.9930419921875
578	0.9912109375	20.6087349479679	0.00140625	0.99090576171875
579	0.98876953125	20.6331349479063	0.00137908935546875	0.987548828125
580	0.986328125	20.6575349478447	0.0013531494140625	0.98541259765625
581	0.98388671875	20.6819349477831	0.0013275146484375	0.98297119140625
582	0.9814453125	20.7063349477215	0.00130218505859375	0.980224609375
583	0.97900390625	20.7307349476599	0.0012774658203125	0.9783935546875
584	0.9765625	20.7551349475983	0.0012530517578125	0.97564697265625
585	0.97412109375	20.7795349475367	0.001229248046875	0.97320556640625
586	0.9716796875	20.8039349474751	0.00120574951171875	0.97076416015625
587	0.96923828125	20.8283349474135	0.00118316650390625	0.96832275390625
588	0.966796875	20.8527349473519	0.0011614990234375	0.965576171875
589	0.96435546875	20.8771349472903	0.0011395263671875	0.96405029296875
590	0.9619140625	20.9015349472287	0.0011181640625	0.9613037109375
591	0.95947265625	20.9259349471671	0.00109771728515625	0.9588623046875
592	0.95703125	20.9503349471055	0.0010772705078125	0.955810546875
593	0.95458984375	20.9747349470439	0.00105712890625	0.95458984375
594	0.9521484375	20.9991349469823	0.00103790283203125	0.950927734375
595	0.94970703125	21.0235349469207	0.00101898193359375	0.94879150390625
596	0.947265625	21.0479349468591	0.000999755859375	0.9466552734375
597	0.94482421875	21.0723349467975	0.0009814453125	0.94390869140625
598	0.9423828125	21.0967349467359	0.00096343994140625	0.9417724609375
599	0.93994140625	21.1211349466743	0.000946044921875	0.938720703125
600	0.9375	21.1455349466127	0.00092864990234375	0.936279296875
601	0.93505859375	21.1699349465511	0.00091156005859375	0.933837890625
602	0.9326171875	21.1943349464894	0.0008953857421875	0.93170166015625
603	0.93017578125	21.2187349464278	0.00087890625	0.92926025390625
604	0.927734375	21.2431349463662	0.00086334228515625	0.92681884765625
605	0.92529296875	21.2675349463046	0.000848388671875	0.924072265625
606	0.9228515625	21.291934946243	0.00083343505859375	0.9222412109375
607	0.92041015625	21.3163349461814	0.0008184814453125	0.91949462890625
608	0.91796875	21.3407349461198	0.00080413818359375	0.916748046875
609	0.91552734375	21.3651349460582	0.000789794921875	0.91461181640625
610	0.9130859375	21.3895349459966	0.00077606201171875	0.91217041015625
611	0.91064453125	21.413934945935	0.0007623291015625	0.90972900390625
612	0.908203125	21.4383349458734	0.00074920654296875	0.90728759765625
613	0.90576171875	21.4627349458118	0.0007366943359375	0.9051513671875
614	0.9033203125	21.4871349457502	0.000723876953125	0.902099609375
615	0.90087890625	21.5115349456886	0.000711669921875	0.9002685546875
616	0.8984375	21.535934945627	0.00069976806640625	0.8978271484375
617	0.89599609375	21.5603349455654	0.0006878662109375	0.89508056640625
618	0.8935546875	21.5847349455038	0.00067626953125	0.89263916015625
619	0.89111328125	21.6091349454422	0.0006646728515625	0.89019775390625
620	0.888671875	21.6335349453806	0.0006536865234375	0.88775634765625
621	0.88623046875	21.657934945319	0.0006427001953125	0.88531494140625
622	0.8837890625	21.6823349452574	0.0006317138671875	0.88287353515625
623	0.88134765625	21.7067349451958	0.00062164306640625	0.88043212890625
624	0.87890625	21.7311349451342	0.0006109619140625	0.8782958984375
625	0.87646484375	21.7555349450726	0.0006011962890625	0.8758544921875
626	0.8740234375	21.779934945011	0.00059112548828125	0.87310791015625
627	0.87158203125	21.8043349449493	0.00058135986328125	0.87066650390625
628	0.869140625	21.8287349448877	0.0005718994140625	0.86822509765625
629	0.86669921875	21.8531349448261	0.00056243896484375	0.8660888671875
630	0.8642578125	21.8775349447645	0.00055328369140625	0.86395263671875
631	0.86181640625	21.9019349447029	0.00054473876953125	0.86090087890625
632	0.859375	21.9263349446413	0.000535888671875	0.8587646484375
633	0.85693359375	21.9507349445797	0.00052734375	0.855712890625
634	0.8544921875	21.9751349445181	0.000518798828125	0.85357666015625
635	0.85205078125	21.9995349444565	0.00051025390625	0.85174560546875
636	0.849609375	22.0239349443949	0.0005023193359375	0.84869384765625
637	0.84716796875	22.0483349443333	0.000493804931640625	0.84625244140625
638	0.8447265625	22.0727349442717	0.00048602294921875	0.84381103515625
639	0.84228515625	22.0971349442101	0.00047845458984375	0.8416748046875
640	0.83984375	22.1215349441485	0.000471099853515625	0.83892822265625
641	0.83740234375	22.1459349440869	0.0004635009765625	0.8367919921875
642	0.8349609375	22.1703349440253	0.000456298828125	0.833740234375
643	0.83251953125	22.1947349439637	0.000448760986328125	0.8319091796875
644	0.830078125	22.2191349439021	0.000442047119140625	0.82916259765625
645	0.82763671875	22.2435349438405	0.000435699462890625	0.82672119140625
646	0.8251953125	22.2679349437789	0.000428131103515625	0.8245849609375
647	0.82275390625	22.2923349437173	0.000421295166015625	0.82183837890625
648	0.8203125	22.3167349436557	0.00041510009765625	0.81939697265625
649	0.81787109375	22.3411349435941	0.000408447265625	0.81695556640625
650	0.8154296875	22.3655349435325	0.00040185546875	0.8154296875
651	0.81298828125	22.3899349434708	0.000395599365234375	0.81207275390625
652	0.810546875	22.4143349434092	0.000389404296875	0.80963134765625
653	0.80810546875	22.4387349433476	0.000383148193359375	0.8074951171875
654	0.8056640625	22.463134943286	0.00037725830078125	0.8050537109375
655	0.80322265625	22.4875349432244	0.000371551513671875	0.8026123046875
656	0.80078125	22.5119349431628	0.00036602783203125	0.79986572265625
657	0.79833984375	22.5363349431012	0.00036016845703125	0.7977294921875
658	0.7958984375	22.5607349430396	0.000355010986328125	0.79559326171875
659	0.79345703125	22.585134942978	0.00034918212890625	0.7928466796875
660	0.791015625	22.6095349429164	0.00034393310546875	0.79071044921875
661	0.78857421875	22.6339349428548	0.000338409423828125	0.78765869140625
662	0.7861328125	22.6583349427932	0.0003331298828125	0.7861328125
663	0.78369140625	22.6827349427316	0.000328155517578125	0.78277587890625
664	0.78125	22.70713494267	0.000323211669921875	0.78033447265625
665	0.77880859375	22.7315349426084	0.00031805419921875	0.7781982421875
666	0.7763671875	22.7559349425468	0.00031353759765625	0.7757568359375
667	0.77392578125	22.7803349424852	0.000308837890625	0.77301025390625
668	0.771484375	22.8047349424236	0.000303924560546875	0.77056884765625
669	0.76904296875	22.829134942362	0.0002987060546875	0.7684326171875
670	0.7666015625	22.8535349423004	0.000294342041015625	0.7659912109375
671	0.76416015625	22.8779349422388	0.0002900390625	0.76324462890625
672	0.76171875	22.9023349421772	0.0002857666015625	0.76080322265625
673	0.75927734375	22.9267349421156	0.000281005859375	0.7586669921875
674	0.7568359375	22.951134942054	0.00027667236328125	0.7562255859375
675	0.75439453125	22.9755349419924	0.000272186279296875	0.7537841796875
676	0.751953125	22.9999349419307	0.0002685546875	0.7513427734375
677	0.74951171875	23.0243349418691	0.000263641357421875	0.749237060546875
678	0.7470703125	23.0487349418075	0.00026007080078125	0.746795654296875
679	0.74462890625	23.0731349417459	0.00025543212890625	0.744354248046875
680	0.7421875	23.0975349416843	0.00025152587890625	0.741973876953125
681	0.73974609375	23.1219349416227	0.000248046875	0.739501953125
682	0.7373046875	23.1463349415611	0.0002440185546875	0.737091064453125
683	0.73486328125	23.1707349414995	0.000240631103515625	0.734649658203125
684	0.732421875	23.1951349414379	0.000236297607421875	0.732177734375
685	0.72998046875	23.2195349413763	0.000232696533203125	0.72979736328125
686	0.7275390625	23.2439349413147	0.00022900390625	0.72735595703125
687	0.72509765625	23.2683349412531	0.00022564697265625	0.72479248046875
688	0.72265625	23.2927349411915	0.000221832275390625	0.722442626953125
689	0.72021484375	23.3171349411299	0.000218170166015625	0.720001220703125
690	0.7177734375	23.3415349410683	0.000214813232421875	0.717559814453125
691	0.71533203125	23.3659349410067	0.000211578369140625	0.715118408203125
692	0.712890625	23.3903349409451	0.0002081298828125	0.712646484375
693	0.71044921875	23.4147349408835	0.00020477294921875	0.71026611328125
694	0.7080078125	23.4391349408219	0.0002015380859375	0.707794189453125
695	0.70556640625	23.4635349407603	0.00019866943359375	0.70538330078125
696	0.703125	23.4879349406987	0.0001954345703125	0.70294189453125
697	0.70068359375	23.5123349406371	0.00019232177734375	0.700469970703125
698	0.6982421875	23.5367349405755	0.000189300537109375	0.69805908203125
699	0.69580078125	23.5611349405139	0.0001861572265625	0.695587158203125
700	0.693359375	23.5855349404522	0.00018316650390625	0.693115234375
701	0.69091796875	23.6099349403906	0.000180511474609375	0.690704345703125
702	0.6884765625	23.634334940329	0.000177642822265625	0.68829345703125
703	0.68603515625	23.6587349402674	0.000174774169921875	0.6859130859375
704	0.68359375	23.6831349402058	0.000172149658203125	0.683380126953125
705	0.68115234375	23.7075349401442	0.000169189453125	0.68096923828125
706	0.6787109375	23.7319349400826	0.00016656494140625	0.678558349609375
707	0.67626953125	23.756334940021	0.000163818359375	0.67608642578125
708	0.673828125	23.7807349399594	0.000161224365234375	0.67364501953125
709	0.67138671875	23.8051349398978	0.00015869140625	0.67120361328125
710	0.6689453125	23.8295349398362	0.0001561279296875	0.668792724609375
711	0.66650390625	23.8539349397746	0.000153564453125	0.66632080078125
712	0.6640625	23.878334939713	0.00015106201171875	0.66387939453125
713	0.66162109375	23.9027349396514	0.00014862060546875	0.66143798828125
714	0.6591796875	23.9271349395898	0.000146209716796875	0.65899658203125
715	0.65673828125	23.9515349395282	0.000143768310546875	0.65655517578125
716	0.654296875	23.9759349394666	0.00014141845703125	0.654144287109375
717	0.65185546875	24.000334939405	0.000139312744140625	0.65167236328125
718	0.6494140625	24.0247349393434	0.000136993408203125	0.64935302734375
719	0.64697265625	24.0491349392818	0.00013494873046875	0.646881103515625
720	0.64453125	24.0735349392202	0.0001328125	0.644439697265625
721	0.64208984375	24.0979349391586	0.000130706787109375	0.641937255859375
722	0.6396484375	24.122334939097	0.00012841796875	0.6395263671875
723	0.63720703125	24.1467349390354	0.000126495361328125	0.637054443359375
724	0.634765625	24.1711349389738	0.00012432861328125	0.634613037109375
725	0.63232421875	24.1955349389121	0.000122344970703125	0.63214111328125
726	0.6298828125	24.2199349388505	0.000120452880859375	0.629852294921875
727	0.62744140625	24.2443349387889	0.00011846923828125	0.6273193359375
728	0.625	24.2687349387273	0.000116729736328125	0.624847412109375
729	0.62255859375	24.2931349386657	0.0001148681640625	0.622406005859375
730	0.6201171875	24.3175349386041	0.000113006591796875	0.620025634765625
731	0.61767578125	24.3419349385425	0.000111419677734375	0.617584228515625
732	0.615234375	24.3663349384809	0.000109527587890625	0.615142822265625
733	0.61279296875	24.3907349384193	0.000107696533203125	0.612701416015625
734	0.6103515625	24.4151349383577	0.00010601806640625	0.610321044921875
735	0.60791015625	24.4395349382961	0.0001043701171875	0.60784912109375
736	0.60546875	24.4639349382345	0.0001025390625	0.60540771484375
737	0.60302734375	24.4883349381729	0.0001007080078125	0.60296630859375
738	0.6005859375	24.5127349381113	9.9578857421875E-05	0.600494384765625
739	0.59814453125	24.5371349380497	9.7930908203125E-05	0.598052978515625
740	0.595703125	24.5615349379881	9.6588134765625E-05	0.595672607421875
741	0.59326171875	24.5859349379265	9.5001220703125E-05	0.59320068359375
742	0.5908203125	24.6103349378649	9.3719482421875E-05	0.590728759765625
743	0.58837890625	24.6347349378033	9.1827392578125E-05	0.588043212890625
744	0.5859375	24.6591349377417	9.0972900390625E-05	0.585693359375
745	0.58349609375	24.6835349376801	8.8897705078125E-05	0.583251953125
746	0.5810546875	24.7079349376185	8.740234375E-05	0.58087158203125
747	0.57861328125	24.7323349375569	8.6181640625E-05	0.578369140625
748	0.576171875	24.7567349374953	8.4716796875E-05	0.575958251953125
749	0.57373046875	24.7811349374336	8.33740234375E-05	0.57354736328125
750	0.5712890625	24.805534937372	8.221435546875E-05	0.571075439453125
751	0.56884765625	24.8299349373104	8.0810546875E-05	0.568603515625
752	0.56640625	24.8543349372488	7.9437255859375E-05	0.56622314453125
753	0.56396484375	24.8787349371872	7.7880859375E-05	0.563812255859375
754	0.5615234375	24.9031349371256	7.6873779296875E-05	0.561309814453125
755	0.55908203125	24.927534937064	7.5469970703125E-05	0.5589599609375
756	0.556640625	24.9519349370024	7.421875E-05	0.556396484375
757	0.55419921875	24.9763349369408	7.3089599609375E-05	0.55401611328125
758	0.5517578125	25.0007349368792	7.177734375E-05	0.551544189453125
759	0.54931640625	25.0251349368176	7.0770263671875E-05	0.549102783203125
760	0.546875	25.049534936756	6.9610595703125E-05	0.54669189453125
761	0.54443359375	25.0739349366944	6.8572998046875E-05	0.5443115234375
762	0.5419921875	25.0983349366328	6.73828125E-05	0.541778564453125
763	0.53955078125	25.1227349365712	6.6192626953125E-05	0.5394287109375
764	0.537109375	25.1471349365096	6.524658203125E-05	0.536956787109375
765	0.53466796875	25.171534936448	6.4239501953125E-05	0.53448486328125
766	0.5322265625	25.1959349363864	6.298828125E-05	0.53204345703125
767	0.52978515625	25.2203349363248	6.1981201171875E-05	0.529632568359375
768	0.52734375	25.2447349362632	6.1004638671875E-05	0.527191162109375
769	0.52490234375	25.2691349362016	6.005859375E-05	0.52471923828125
770	0.5224609375	25.29353493614	5.9051513671875E-05	0.522308349609375
771	0.52001953125	25.3179349360784	5.8074951171875E-05	0.519805908203125
772	0.517578125	25.3423349360168	5.7281494140625E-05	0.51739501953125
773	0.51513671875	25.3667349359552	5.633544921875E-05	0.5150146484375
774	0.5126953125	25.3911349358935	5.5633544921875E-05	0.5125732421875
775	0.51025390625	25.4155349358319	5.4779052734375E-05	0.510162353515625
776	0.5078125	25.4399349357703	5.37109375E-05	0.507720947265625
777	0.50537109375	25.4643349357087	5.3070068359375E-05	0.505218505859375
778	0.5029296875	25.4887349356471	5.23681640625E-05	0.502838134765625
779	0.50048828125	25.5131349355855	5.1513671875E-05	0.50030517578125
780	0.498046875	25.5375349355239	5.0628662109375E-05	0.497894287109375
781	0.49560546875	25.5619349354623	4.99267578125E-05	0.4954833984375
782	0.4931640625	25.5863349354007	4.9224853515625E-05	0.4930419921875
783	0.49072265625	25.6107349353391	4.8309326171875E-05	0.490570068359375
784	0.48828125	25.6351349352775	4.7662353515625E-05	0.4881591796875
785	0.48583984375	25.6595349352159	4.67681884765625E-05	0.48565673828125
786	0.4833984375	25.6839349351543	4.620361328125E-05	0.4832763671875
787	0.48095703125	25.7083349350927	4.5489501953125E-05	0.480865478515625
788	0.478515625	25.7327349350311	4.4952392578125E-05	0.4783935546875
789	0.47607421875	25.7571349349695	4.42291259765625E-05	0.47601318359375
790	0.4736328125	25.7815349349079	4.3328857421875E-05	0.4735107421875
791	0.47119140625	25.8059349348463	4.26361083984375E-05	0.471038818359375
792	0.46875	25.8303349347847	4.20013427734375E-05	0.468597412109375
793	0.46630859375	25.8547349347231	4.15130615234375E-05	0.4661865234375
794	0.4638671875	25.8791349346615	4.09759521484375E-05	0.463775634765625
795	0.46142578125	25.9035349345999	4.03411865234375E-05	0.4613037109375
796	0.458984375	25.9279349345383	3.9605712890625E-05	0.4588623046875
797	0.45654296875	25.9523349344767	3.9117431640625E-05	0.4564208984375
798	0.4541015625	25.976734934415	3.86260986328125E-05	0.4539794921875
799	0.45166015625	26.0011349343534	3.79791259765625E-05	0.451507568359375
800	0.44921875	26.0255349342918	3.753662109375E-05	0.4490966796875
801	0.44677734375	26.0499349342302	3.69537353515625E-05	0.4466552734375
802	0.4443359375	26.0743349341686	3.63861083984375E-05	0.444244384765625
803	0.44189453125	26.098734934107	3.57940673828125E-05	0.441802978515625
804	0.439453125	26.1231349340454	3.53057861328125E-05	0.4393310546875
805	0.43701171875	26.1475349339838	3.48480224609375E-05	0.43695068359375
806	0.4345703125	26.1719349339222	3.44482421875E-05	0.43450927734375
807	0.43212890625	26.1963349338606	3.4002685546875E-05	0.43206787109375
808	0.4296875	26.220734933799	3.3441162109375E-05	0.42962646484375
809	0.42724609375	26.2451349337374	3.30322265625E-05	0.42718505859375
810	0.4248046875	26.2695349336758	3.2672119140625E-05	0.4246826171875
811	0.42236328125	26.2939349336142	3.22845458984375E-05	0.422271728515625
812	0.419921875	26.3183349335526	3.1744384765625E-05	0.41986083984375
813	0.41748046875	26.342734933491	3.13446044921875E-05	0.41748046875
814	0.4150390625	26.3671349334294	3.09844970703125E-05	0.414947509765625
815	0.41259765625	26.3915349333678	3.05877685546875E-05	0.412567138671875
816	0.41015625	26.4159349333062	3.0316162109375E-05	0.41009521484375
817	0.40771484375	26.4403349332446	2.98492431640625E-05	0.40765380859375
818	0.4052734375	26.464734933183	2.94281005859375E-05	0.405181884765625
819	0.40283203125	26.4891349331214	2.90740966796875E-05	0.402740478515625
820	0.400390625	26.5135349330598	2.88299560546875E-05	0.40032958984375
821	0.39794921875	26.5379349329982	2.8369140625E-05	0.39788818359375
822	0.3955078125	26.5623349329366	2.803955078125E-05	0.395477294921875
823	0.39306640625	26.5867349328749	2.76519775390625E-05	0.393035888671875
824	0.390625	26.6111349328133	2.73590087890625E-05	0.39056396484375
825	0.38818359375	26.6355349327517	2.7001953125E-05	0.38812255859375
826	0.3857421875	26.6599349326901	2.66571044921875E-05	0.38568115234375
827	0.38330078125	26.6843349326285	2.63580322265625E-05	0.38323974609375
828	0.380859375	26.7087349325669	2.58819580078125E-05	0.380767822265625
829	0.37841796875	26.7331349325053	2.56500244140625E-05	0.378326416015625
830	0.3759765625	26.7575349324437	2.53936767578125E-05	0.375946044921875
831	0.37353515625	26.7819349323821	2.50335693359375E-05	0.373443603515625
832	0.37109375	26.8063349323205	2.45452880859375E-05	0.37103271484375
833	0.36865234375	26.8307349322589	2.44171142578125E-05	0.36859130859375
834	0.3662109375	26.8551349321973	2.41180419921875E-05	0.366180419921875
835	0.36376953125	26.8795349321357	2.37579345703125E-05	0.36376953125
836	0.361328125	26.9039349320741	2.35595703125E-05	0.361297607421875
837	0.35888671875	26.9283349320125	2.3211669921875E-05	0.358856201171875
838	0.3564453125	26.9527349319509	2.29736328125E-05	0.356414794921875
839	0.35400390625	26.9771349318893	2.27752685546875E-05	0.35400390625
840	0.3515625	27.0015349318277	2.23907470703125E-05	0.351531982421875
841	0.34912109375	27.0259349317661	2.21588134765625E-05	0.349090576171875
842	0.3466796875	27.0503349317045	2.1990966796875E-05	0.34661865234375
843	0.34423828125	27.0747349316429	2.1685791015625E-05	0.34417724609375
844	0.341796875	27.0991349315813	2.1435546875E-05	0.34173583984375
845	0.33935546875	27.1235349315197	2.120361328125E-05	0.339324951171875
846	0.3369140625	27.1479349314581	2.09808349609375E-05	0.336883544921875
847	0.33447265625	27.1723349313964	2.07763671875E-05	0.334442138671875
848	0.33203125	27.1967349313348	2.0574951171875E-05	0.331939697265625
849	0.32958984375	27.2211349312732	2.01995849609375E-05	0.329620361328125
850	0.3271484375	27.2455349312116	2.0068359375E-05	0.327117919921875
851	0.32470703125	27.26993493115	1.9781494140625E-05	0.32470703125
852	0.322265625	27.2943349310884	1.966552734375E-05	0.32220458984375
853	0.31982421875	27.3187349310268	1.947021484375E-05	0.319793701171875
854	0.3173828125	27.3431349309652	1.9244384765625E-05	0.3173828125
855	0.31494140625	27.3675349309036	1.890869140625E-05	0.31494140625
856	0.3125	27.391934930842	1.871337890625E-05	0.3125
857	0.31005859375	27.4163349307804	1.85089111328125E-05	0.30999755859375
858	0.3076171875	27.4407349307188	1.832275390625E-05	0.3074951171875
859	0.30517578125	27.4651349306572	1.8109130859375E-05	0.305145263671875
860	0.302734375	27.4895349305956	1.78619384765625E-05	0.302703857421875
861	0.30029296875	27.513934930534	1.76605224609375E-05	0.30029296875
862	0.2978515625	27.5383349304724	1.7510986328125E-05	0.29779052734375
863	0.29541015625	27.5627349304108	1.71966552734375E-05	0.29534912109375
864	0.29296875	27.5871349303492	1.71142578125E-05	0.292938232421875
865	0.29052734375	27.6115349302876	1.69647216796875E-05	0.29046630859375
866	0.2880859375	27.635934930226	1.673583984375E-05	0.288055419921875
867	0.28564453125	27.6603349301644	1.646728515625E-05	0.285614013671875
868	0.283203125	27.6847349301028	1.6290283203125E-05	0.283172607421875
869	0.28076171875	27.7091349300412	1.607666015625E-05	0.28076171875
870	0.2783203125	27.7335349299796	1.59912109375E-05	0.27825927734375
871	0.27587890625	27.757934929918	1.5777587890625E-05	0.275848388671875
872	0.2734375	27.7823349298563	1.57318115234375E-05	0.273468017578125
873	0.27099609375	27.8067349297947	1.556396484375E-05	0.270965576171875
874	0.2685546875	27.8311349297331	1.53594970703125E-05	0.268524169921875
875	0.26611328125	27.8555349296715	1.52587890625E-05	0.266143798828125
876	0.263671875	27.8799349296099	1.50115966796875E-05	0.26361083984375
877	0.26123046875	27.9043349295483	1.4776611328125E-05	0.26123046875
878	0.2587890625	27.9287349294867	1.4697265625E-05	0.258758544921875
879	0.25634765625	27.9531349294251	1.4483642578125E-05	0.25634765625
880	0.25390625	27.9775349293635	1.43463134765625E-05	0.253875732421875
881	0.25146484375	28.0019349293019	1.4105224609375E-05	0.251434326171875
882	0.2490234375	28.0263349292403	1.38702392578125E-05	0.249053955078125
883	0.24658203125	28.0507349291787	1.365966796875E-05	0.246551513671875
884	0.244140625	28.0751349291171	1.3726806640625E-05	0.244110107421875
885	0.24169921875	28.0995349290555	1.3446044921875E-05	0.24169921875
886	0.2392578125	28.1239349289939	1.32568359375E-05	0.239288330078125
887	0.23681640625	28.1483349289323	1.30645751953125E-05	0.236846923828125
888	0.234375	28.1727349288707	1.2847900390625E-05	0.234405517578125
889	0.23193359375	28.1971349288091	1.27838134765625E-05	0.231903076171875
890	0.2294921875	28.2215349287475	1.25762939453125E-05	0.2294921875
891	0.22705078125	28.2459349286859	1.2359619140625E-05	0.22705078125
892	0.224609375	28.2703349286243	1.22467041015625E-05	0.224609375
893	0.22216796875	28.2947349285627	1.21368408203125E-05	0.22210693359375
894	0.2197265625	28.3191349285011	1.19476318359375E-05	0.21978759765625
895	0.21728515625	28.3435349284395	1.18072509765625E-05	0.21728515625
896	0.21484375	28.3679349283778	1.16668701171875E-05	0.21490478515625
897	0.21240234375	28.3923349283162	1.15386962890625E-05	0.21240234375
898	0.2099609375	28.4167349282546	1.13494873046875E-05	0.209930419921875
899	0.20751953125	28.441134928193	1.12548828125E-05	0.207550048828125
900	0.205078125	28.4655349281314	1.1041259765625E-05	0.205047607421875
901	0.20263671875	28.4899349280698	1.0906982421875E-05	0.202667236328125
902	0.2001953125	28.5143349280082	1.08306884765625E-05	0.200164794921875
903	0.19775390625	28.5387349279466	1.06781005859375E-05	0.19775390625
904	0.1953125	28.563134927885	1.04736328125E-05	0.1953125
905	0.19287109375	28.5875349278234	1.03363037109375E-05	0.192901611328125
906	0.1904296875	28.6119349277618	1.02203369140625E-05	0.190399169921875
907	0.18798828125	28.6363349277002	1.00921630859375E-05	0.188018798828125
908	0.185546875	28.6607349276386	9.906005859375E-06	0.185516357421875
909	0.18310546875	28.685134927577	9.7564697265625E-06	0.183074951171875
910	0.1806640625	28.7095349275154	9.5855712890625E-06	0.1806640625
911	0.17822265625	28.7339349274538	9.4146728515625E-06	0.178253173828125
912	0.17578125	28.7583349273922	9.3475341796875E-06	0.1759033203125
913	0.17333984375	28.7827349273306	9.1583251953125E-06	0.173187255859375
914	0.1708984375	28.807134927269	8.917236328125E-06	0.170806884765625
915	0.16845703125	28.8315349272074	8.8287353515625E-06	0.1683349609375
916	0.166015625	28.8559349271458	8.6517333984375E-06	0.165924072265625
917	0.16357421875	28.8803349270842	8.6029052734375E-06	0.163482666015625
918	0.1611328125	28.9047349270226	8.3892822265625E-06	0.161041259765625
919	0.15869140625	28.929134926961	8.1878662109375E-06	0.158538818359375
920	0.15625	28.9535349268994	8.1573486328125E-06	0.156158447265625
921	0.15380859375	28.9779349268377	8.026123046875E-06	0.153778076171875
922	0.1513671875	29.0023349267761	7.891845703125E-06	0.1512451171875
923	0.14892578125	29.0267349267145	7.6568603515625E-06	0.148834228515625
924	0.146484375	29.0511349266529	7.5347900390625E-06	0.1463623046875
925	0.14404296875	29.0755349265913	7.421875E-06	0.1439208984375
926	0.1416015625	29.0999349265297	7.3272705078125E-06	0.14154052734375
927	0.13916015625	29.1243349264681	7.1929931640625E-06	0.13909912109375
928	0.13671875	29.1487349264065	7.0159912109375E-06	0.13665771484375
929	0.13427734375	29.1731349263449	6.9549560546875E-06	0.13421630859375
930	0.1318359375	29.1975349262833	6.8359375E-06	0.131744384765625
931	0.12939453125	29.2219349262217	6.7169189453125E-06	0.1292724609375
932	0.126953125	29.2463349261601	6.5155029296875E-06	0.1268310546875
933	0.12451171875	29.2707349260985	6.3446044921875E-06	0.124420166015625
934	0.1220703125	29.2951349260369	6.2103271484375E-06	0.121978759765625
935	0.11962890625	29.3195349259753	6.1065673828125E-06	0.11956787109375
936	0.1171875	29.3439349259137	6.024169921875E-06	0.117095947265625
937	0.11474609375	29.3683349258521	5.877685546875E-06	0.11468505859375
938	0.1123046875	29.3927349257905	5.7373046875E-06	0.112213134765625
939	0.10986328125	29.4171349257289	5.6121826171875E-06	0.109771728515625
940	0.107421875	29.4415349256673	5.50537109375E-06	0.10736083984375
941	0.10498046875	29.4659349256057	5.4107666015625E-06	0.104888916015625
942	0.1025390625	29.4903349255441	5.2581787109375E-06	0.1024169921875
943	0.10009765625	29.5147349254825	5.078125E-06	0.100067138671875
944	0.09765625	29.5391349254209	4.9835205078125E-06	0.097625732421875
945	0.09521484375	29.5635349253592	4.89837646484375E-06	0.095123291015625
946	0.0927734375	29.5879349252976	4.718017578125E-06	0.0927734375
947	0.09033203125	29.612334925236	4.5709228515625E-06	0.09033203125
948	0.087890625	29.6367349251744	4.43695068359375E-06	0.08782958984375
949	0.08544921875	29.6611349251128	4.41070556640625E-06	0.085418701171875
950	0.0830078125	29.6855349250512	4.178466796875E-06	0.08294677734375
951	0.08056640625	29.7099349249896	4.0020751953125E-06	0.080535888671875
952	0.078125	29.734334924928	3.8958740234375E-06	0.078094482421875
953	0.07568359375	29.7587349248664	3.8385009765625E-06	0.075653076171875
954	0.0732421875	29.7831349248048	3.74542236328125E-06	0.0732421875
955	0.07080078125	29.8075349247432	3.6236572265625E-06	0.07080078125
956	0.068359375	29.8319349246816	3.36151123046875E-06	0.068389892578125
957	0.06591796875	29.85633492462	3.26934814453125E-06	0.06597900390625
958	0.0634765625	29.8807349245584	3.18817138671875E-06	0.063507080078125
959	0.06103515625	29.9051349244968	3.040771484375E-06	0.061004638671875
960	0.05859375	29.9295349244352	2.864990234375E-06	0.058685302734375
961	0.05615234375	29.9539349243736	2.74017333984375E-06	0.056182861328125
962	0.0537109375	29.978334924312	2.66326904296875E-06	0.0538330078125
963	0.05126953125	30.0027349242504	2.56072998046875E-06	0.051300048828125
964	0.048828125	30.0271349241888	2.4114990234375E-06	0.048968505859375
965	0.04638671875	30.0515349241272	2.303466796875E-06	0.046533203125
966	0.0439453125	30.0759349240656	2.181396484375E-06	0.04410400390625
967	0.04150390625	30.100334924004	2.0904541015625E-06	0.04166259765625
968	0.0390625	30.1247349239424	1.964111328125E-06	0.039208984375
969	0.03662109375	30.1491349238808	1.8060302734375E-06	0.0367706298828125
970	0.0341796875	30.1735349238191	1.67510986328125E-06	0.0343231201171875
971	0.03173828125	30.1979349237575	1.531982421875E-06	0.03189697265625
972	0.029296875	30.2223349236959	1.45477294921875E-06	0.029443359375
973	0.02685546875	30.2467349236343	1.31378173828125E-06	0.026995849609375
974	0.0244140625	30.2711349235727	1.141357421875E-06	0.02457275390625
975	0.02197265625	30.2955349235111	1.0125732421875E-06	0.022125244140625
976	0.01953125	30.3199349234495	9.417724609375E-07	0.0196807861328125
977	0.01708984375	30.3443349233879	8.30078125E-07	0.017236328125
978	0.0146484375	30.3687349233263	6.7901611328125E-07	0.01480712890625
979	0.01220703125	30.3931349232647	5.3375244140625E-07	0.0123748779296875
980	0.009765625	30.4175349232031	4.212646484375E-07	0.0099151611328125
981	0.00732421875	30.4419349231415	3.3343505859375E-07	0.007489013671875
982	0.0048828125	30.4663349230799	2.10357666015625E-07	0.005035400390625
983	0.00244140625	30.4907349230183	5.16357421875E-08	0.00262451171875
984	0	30.5151349229567	-8.8958740234375E-08	0.000140380859374997
985	0.00244140625	30.5395349228951	6.451416015625E-08	0.00260009765624999
986	0.0048828125	30.5639349228335	2.164306640625E-07	0.0050018310546875
