Index	Potential applied (V)	Time (s)	WE(1).Current (A)	WE(1).Potential (V)
1	0.00244140625	232.678130412544	-0.000309356689453125	0.0026092529296875
2	0.0048828125	232.702530412483	-0.00030206298828125	0.005047607421875
3	0.00732421875	232.726930412421	-0.000308837890625	0.0074615478515625
4	0.009765625	232.751330412359	-0.000304656982421875	0.0099029541015625
5	0.01220703125	232.775730412298	-0.000306365966796875	0.012359619140625
6	0.0146484375	232.800130412236	-0.000305816650390625	0.0148162841796875
7	0.01708984375	232.824530412175	-0.00030450439453125	0.017254638671875
8	0.01953125	232.848930412113	-0.00030889892578125	0.0196746826171875
9	0.02197265625	232.873330412051	-0.000302825927734375	0.0221221923828125
10	0.0244140625	232.89773041199	-0.0003087158203125	0.0245849609375
11	0.02685546875	232.922130411928	-0.000301422119140625	0.027008056640625
12	0.029296875	232.946530411867	-0.00030841064453125	0.0294403076171875
13	0.03173828125	232.970930411805	-0.00030364990234375	0.0318878173828125
14	0.0341796875	232.995330411743	-0.000305877685546875	0.034332275390625
15	0.03662109375	233.019730411682	-0.000304901123046875	0.0367828369140625
16	0.0390625	233.04413041162	-0.000303955078125	0.0392333984375
17	0.04150390625	233.068530411559	-0.000307830810546875	0.0416595458984375
18	0.0439453125	233.092930411497	-0.000302093505859375	0.0440948486328125
19	0.04638671875	233.117330411435	-0.00030767822265625	0.0465484619140625
20	0.048828125	233.141730411374	-0.00030029296875	0.048968505859375
21	0.05126953125	233.166130411312	-0.00030712890625	0.0513916015625
22	0.0537109375	233.190530411251	-0.00030194091796875	0.0538330078125
23	0.05615234375	233.214930411189	-0.000304168701171875	0.05621337890625
24	0.05859375	233.239330411127	-0.000302764892578125	0.058746337890625
25	0.06103515625	233.263730411066	-0.00030218505859375	0.0611572265625
26	0.0634765625	233.288130411004	-0.0003056640625	0.063629150390625
27	0.06591796875	233.312530410942	-0.00030010986328125	0.066070556640625
28	0.068359375	233.336930410881	-0.00030560302734375	0.068450927734375
29	0.07080078125	233.361330410819	-0.00029833984375	0.07086181640625
30	0.0732421875	233.385730410758	-0.00030548095703125	0.073333740234375
31	0.07568359375	233.410130410696	-0.000299957275390625	0.07574462890625
32	0.078125	233.434530410634	-0.000302947998046875	0.07818603515625
33	0.08056640625	233.458930410573	-0.000301300048828125	0.080657958984375
34	0.0830078125	233.483330410511	-0.000301361083984375	0.0831298828125
35	0.08544921875	233.50773041045	-0.000304718017578125	0.085540771484375
36	0.087890625	233.532130410388	-0.00029974365234375	0.0880126953125
37	0.09033203125	233.556530410326	-0.000305145263671875	0.090484619140625
38	0.0927734375	233.580930410265	-0.000298126220703125	0.092864990234375
39	0.09521484375	233.605330410203	-0.000305694580078125	0.095306396484375
40	0.09765625	233.629730410142	-0.000299774169921875	0.0977783203125
41	0.10009765625	233.65413041008	-0.000303314208984375	0.100189208984375
42	0.1025390625	233.678530410018	-0.00030145263671875	0.102691650390625
43	0.10498046875	233.702930409957	-0.000302154541015625	0.1051025390625
44	0.107421875	233.727330409895	-0.000305084228515625	0.107513427734375
45	0.10986328125	233.751730409834	-0.000300506591796875	0.109954833984375
46	0.1123046875	233.776130409772	-0.000305755615234375	0.112396240234375
47	0.11474609375	233.80053040971	-0.000298858642578125	0.114837646484375
48	0.1171875	233.824930409649	-0.000306427001953125	0.11724853515625
49	0.11962890625	233.849330409587	-0.00030010986328125	0.119720458984375
50	0.1220703125	233.873730409526	-0.00030401611328125	0.12213134765625
51	0.12451171875	233.898130409464	-0.000301483154296875	0.1246337890625
52	0.126953125	233.922530409402	-0.00030255126953125	0.126983642578125
53	0.12939453125	233.946930409341	-0.000304840087890625	0.129486083984375
54	0.1318359375	233.971330409279	-0.000300506591796875	0.131927490234375
55	0.13427734375	233.995730409218	-0.00030535888671875	0.134368896484375
56	0.13671875	234.020130409156	-0.00029840087890625	0.13677978515625
57	0.13916015625	234.044530409094	-0.00030584716796875	0.1392822265625
58	0.1416015625	234.068930409033	-0.000298828125	0.141693115234375
59	0.14404296875	234.093330408971	-0.000302581787109375	0.144195556640625
60	0.146484375	234.11773040891	-0.00029937744140625	0.146575927734375
61	0.14892578125	234.142130408848	-0.00030047607421875	0.14898681640625
62	0.1513671875	234.166530408786	-0.00030206298828125	0.151458740234375
63	0.15380859375	234.190930408725	-0.0002979736328125	0.15386962890625
64	0.15625	234.215330408663	-0.00030230712890625	0.156341552734375
65	0.15869140625	234.239730408602	-0.00029547119140625	0.15875244140625
66	0.1611328125	234.26413040854	-0.000302764892578125	0.16119384765625
67	0.16357421875	234.288530408478	-0.000295623779296875	0.163665771484375
68	0.166015625	234.312930408417	-0.000299835205078125	0.1661376953125
69	0.16845703125	234.337330408355	-0.00029644775390625	0.168548583984375
70	0.1708984375	234.361730408294	-0.000298309326171875	0.170989990234375
71	0.17333984375	234.386130408232	-0.0002996826171875	0.173431396484375
72	0.17578125	234.41053040817	-0.000296295166015625	0.17584228515625
73	0.17822265625	234.434930408109	-0.000300628662109375	0.178314208984375
74	0.1806640625	234.459330408047	-0.00029443359375	0.1807861328125
75	0.18310546875	234.483730407985	-0.000301971435546875	0.183197021484375
76	0.185546875	234.508130407924	-0.0002947998046875	0.18560791015625
77	0.18798828125	234.532530407862	-0.000299591064453125	0.18804931640625
78	0.1904296875	234.556930407801	-0.000295989990234375	0.19049072265625
79	0.19287109375	234.581330407739	-0.000298553466796875	0.192962646484375
80	0.1953125	234.605730407677	-0.000299774169921875	0.195404052734375
81	0.19775390625	234.630130407616	-0.00029693603515625	0.197784423828125
82	0.2001953125	234.654530407554	-0.000301177978515625	0.20025634765625
83	0.20263671875	234.678930407493	-0.000295379638671875	0.202728271484375
84	0.205078125	234.703330407431	-0.000303009033203125	0.2052001953125
85	0.20751953125	234.727730407369	-0.000295654296875	0.20758056640625
86	0.2099609375	234.752130407308	-0.0003006591796875	0.2100830078125
87	0.21240234375	234.776530407246	-0.00029644775390625	0.212493896484375
88	0.21484375	234.800930407185	-0.000299285888671875	0.2149658203125
89	0.21728515625	234.825330407123	-0.000299652099609375	0.217376708984375
90	0.2197265625	234.849730407061	-0.0002969970703125	0.21978759765625
91	0.22216796875	234.874130407	-0.000300445556640625	0.22222900390625
92	0.224609375	234.898530406938	-0.000294647216796875	0.22467041015625
93	0.22705078125	234.922930406877	-0.0003017578125	0.227081298828125
94	0.2294921875	234.947330406815	-0.000293914794921875	0.229583740234375
95	0.23193359375	234.971730406753	-0.00029864501953125	0.23199462890625
96	0.234375	234.996130406692	-0.000293609619140625	0.23443603515625
97	0.23681640625	235.02053040663	-0.00029669189453125	0.23687744140625
98	0.2392578125	235.044930406569	-0.000295654296875	0.23931884765625
99	0.24169921875	235.069330406507	-0.000292572021484375	0.2418212890625
100	0.244140625	235.093730406445	-0.00029486083984375	0.244232177734375
101	0.24658203125	235.118130406384	-0.00028900146484375	0.2467041015625
102	0.2490234375	235.142530406322	-0.00029547119140625	0.249114990234375
103	0.25146484375	235.166930406261	-0.000287689208984375	0.251556396484375
104	0.25390625	235.191330406199	-0.00029278564453125	0.253997802734375
105	0.25634765625	235.215730406137	-0.00028765869140625	0.256439208984375
106	0.2587890625	235.240130406076	-0.00029132080078125	0.258880615234375
107	0.26123046875	235.264530406014	-0.000290985107421875	0.26129150390625
108	0.263671875	235.288930405953	-0.000289398193359375	0.26373291015625
109	0.26611328125	235.313330405891	-0.00029241943359375	0.26617431640625
110	0.2685546875	235.337730405829	-0.000287750244140625	0.268646240234375
111	0.27099609375	235.362130405768	-0.0002947998046875	0.27105712890625
112	0.2734375	235.386530405706	-0.000287506103515625	0.273529052734375
113	0.27587890625	235.410930405645	-0.00029327392578125	0.27593994140625
114	0.2783203125	235.435330405583	-0.000287994384765625	0.27838134765625
115	0.28076171875	235.459730405521	-0.000292327880859375	0.280853271484375
116	0.283203125	235.48413040546	-0.000291717529296875	0.283233642578125
117	0.28564453125	235.508530405398	-0.000290557861328125	0.285675048828125
118	0.2880859375	235.532930405337	-0.000293182373046875	0.288177490234375
119	0.29052734375	235.557330405275	-0.000288787841796875	0.29058837890625
120	0.29296875	235.581730405213	-0.000295684814453125	0.29302978515625
121	0.29541015625	235.606130405152	-0.0002882080078125	0.295501708984375
122	0.2978515625	235.63053040509	-0.000293853759765625	0.29791259765625
123	0.30029296875	235.654930405028	-0.00028814697265625	0.30035400390625
124	0.302734375	235.679330404967	-0.000292755126953125	0.302825927734375
125	0.30517578125	235.703730404905	-0.000291290283203125	0.305206298828125
126	0.3076171875	235.728130404844	-0.00029010009765625	0.3076171875
127	0.31005859375	235.752530404782	-0.000292022705078125	0.31011962890625
128	0.3125	235.77693040472	-0.00028753662109375	0.312530517578125
129	0.31494140625	235.801330404659	-0.000293670654296875	0.315032958984375
130	0.3173828125	235.825730404597	-0.000285980224609375	0.317413330078125
131	0.31982421875	235.850130404536	-0.000291351318359375	0.319915771484375
132	0.322265625	235.874530404474	-0.00028497314453125	0.322296142578125
133	0.32470703125	235.898930404412	-0.00028936767578125	0.324798583984375
134	0.3271484375	235.923330404351	-0.00028729248046875	0.3272705078125
135	0.32958984375	235.947730404289	-0.000286224365234375	0.329620361328125
136	0.33203125	235.972130404228	-0.0002874755859375	0.332061767578125
137	0.33447265625	235.996530404166	-0.00028350830078125	0.33453369140625
138	0.3369140625	236.020930404104	-0.0002891845703125	0.337005615234375
139	0.33935546875	236.045330404043	-0.000281768798828125	0.3394775390625
140	0.341796875	236.069730403981	-0.00028729248046875	0.34185791015625
141	0.34423828125	236.09413040392	-0.00028094482421875	0.34429931640625
142	0.3466796875	236.118530403858	-0.000286102294921875	0.34674072265625
143	0.34912109375	236.142930403796	-0.00028387451171875	0.349151611328125
144	0.3515625	236.167330403735	-0.00028375244140625	0.35162353515625
145	0.35400390625	236.191730403673	-0.000285003662109375	0.35406494140625
146	0.3564453125	236.216130403612	-0.000281951904296875	0.35650634765625
147	0.35888671875	236.24053040355	-0.000287750244140625	0.358917236328125
148	0.361328125	236.264930403488	-0.00028082275390625	0.36138916015625
149	0.36376953125	236.289330403427	-0.000286651611328125	0.3638916015625
150	0.3662109375	236.313730403365	-0.000280029296875	0.366241455078125
151	0.36865234375	236.338130403304	-0.000285736083984375	0.368682861328125
152	0.37109375	236.362530403242	-0.00028314208984375	0.37115478515625
153	0.37353515625	236.38693040318	-0.00028338623046875	0.37353515625
154	0.3759765625	236.411330403119	-0.000284271240234375	0.37603759765625
155	0.37841796875	236.435730403057	-0.000281524658203125	0.3785400390625
156	0.380859375	236.460130402996	-0.000287139892578125	0.38092041015625
157	0.38330078125	236.484530402934	-0.00027978515625	0.383331298828125
158	0.3857421875	236.508930402872	-0.000285675048828125	0.38580322265625
159	0.38818359375	236.533330402811	-0.0002784423828125	0.388214111328125
160	0.390625	236.557730402749	-0.000283721923828125	0.390655517578125
161	0.39306640625	236.582130402688	-0.000280303955078125	0.393096923828125
162	0.3955078125	236.606530402626	-0.0002803955078125	0.39556884765625
163	0.39794921875	236.630930402564	-0.000280364990234375	0.398040771484375
164	0.400390625	236.655330402503	-0.0002774658203125	0.40045166015625
165	0.40283203125	236.679730402441	-0.000282135009765625	0.40283203125
166	0.4052734375	236.70413040238	-0.000275238037109375	0.4052734375
167	0.40771484375	236.728530402318	-0.000280548095703125	0.40777587890625
168	0.41015625	236.752930402256	-0.000273223876953125	0.4102783203125
169	0.41259765625	236.777330402195	-0.000278900146484375	0.412628173828125
170	0.4150390625	236.801730402133	-0.000275238037109375	0.41510009765625
171	0.41748046875	236.826130402071	-0.0002757568359375	0.41754150390625
172	0.419921875	236.85053040201	-0.0002757568359375	0.41998291015625
173	0.42236328125	236.874930401948	-0.0002734375	0.422454833984375
174	0.4248046875	236.899330401887	-0.000278076171875	0.424835205078125
175	0.42724609375	236.923730401825	-0.000271575927734375	0.42730712890625
176	0.4296875	236.948130401763	-0.000277252197265625	0.429718017578125
177	0.43212890625	236.972530401702	-0.000270172119140625	0.43212890625
178	0.4345703125	236.99693040164	-0.000276275634765625	0.434600830078125
179	0.43701171875	237.021330401579	-0.00027239990234375	0.437042236328125
180	0.439453125	237.045730401517	-0.000273590087890625	0.439483642578125
181	0.44189453125	237.070130401455	-0.00027349853515625	0.441986083984375
182	0.4443359375	237.094530401394	-0.00027166748046875	0.444366455078125
183	0.44677734375	237.118930401332	-0.00027618408203125	0.44683837890625
184	0.44921875	237.143330401271	-0.00026983642578125	0.449249267578125
185	0.45166015625	237.167730401209	-0.000275543212890625	0.451690673828125
186	0.4541015625	237.192130401147	-0.000268280029296875	0.45416259765625
187	0.45654296875	237.216530401086	-0.00027447509765625	0.456573486328125
188	0.458984375	237.240930401024	-0.00027020263671875	0.45904541015625
189	0.46142578125	237.265330400963	-0.000271575927734375	0.46142578125
190	0.4638671875	237.289730400901	-0.0002706298828125	0.46392822265625
191	0.46630859375	237.314130400839	-0.000269073486328125	0.46636962890625
192	0.46875	237.338530400778	-0.000272430419921875	0.468780517578125
193	0.47119140625	237.362930400716	-0.0002662353515625	0.47119140625
194	0.4736328125	237.387330400655	-0.00027142333984375	0.473663330078125
195	0.47607421875	237.411730400593	-0.000263671875	0.476104736328125
196	0.478515625	237.436130400531	-0.000269805908203125	0.478515625
197	0.48095703125	237.46053040047	-0.000264495849609375	0.480926513671875
198	0.4833984375	237.484930400408	-0.0002657470703125	0.4833984375
199	0.48583984375	237.509330400347	-0.0002642822265625	0.485870361328125
200	0.48828125	237.533730400285	-0.000262664794921875	0.48834228515625
201	0.49072265625	237.558130400223	-0.000265716552734375	0.49072265625
202	0.4931640625	237.582530400162	-0.00025970458984375	0.4931640625
203	0.49560546875	237.6069304001	-0.000264190673828125	0.49566650390625
204	0.498046875	237.631330400039	-0.000256561279296875	0.49810791015625
205	0.50048828125	237.655730399977	-0.0002628173828125	0.50042724609375
206	0.5029296875	237.680130399915	-0.000257232666015625	0.5029296875
207	0.50537109375	237.704530399854	-0.0002591552734375	0.505340576171875
208	0.5078125	237.728930399792	-0.00025750732421875	0.507843017578125
209	0.51025390625	237.753330399731	-0.00025665283203125	0.510284423828125
210	0.5126953125	237.777730399669	-0.00025958251953125	0.512725830078125
211	0.51513671875	237.802130399607	-0.000253509521484375	0.515167236328125
212	0.517578125	237.826530399546	-0.00025848388671875	0.517608642578125
213	0.52001953125	237.850930399484	-0.0002510986328125	0.519989013671875
214	0.5224609375	237.875330399423	-0.000257537841796875	0.5224609375
215	0.52490234375	237.899730399361	-0.000251495361328125	0.524932861328125
216	0.52734375	237.924130399299	-0.000253692626953125	0.527313232421875
217	0.52978515625	237.948530399238	-0.000251434326171875	0.52978515625
218	0.5322265625	237.972930399176	-0.0002509765625	0.532257080078125
219	0.53466796875	237.997330399115	-0.000253021240234375	0.53466796875
220	0.537109375	238.021730399053	-0.000247314453125	0.537078857421875
221	0.53955078125	238.046130398991	-0.000251678466796875	0.539581298828125
222	0.5419921875	238.07053039893	-0.000244171142578125	0.5419921875
223	0.54443359375	238.094930398868	-0.000250152587890625	0.54443359375
224	0.546875	238.119330398806	-0.00024346923828125	0.546844482421875
225	0.54931640625	238.143730398745	-0.000245697021484375	0.549285888671875
226	0.5517578125	238.168130398683	-0.000242584228515625	0.551788330078125
227	0.55419921875	238.192530398622	-0.000242095947265625	0.554168701171875
228	0.556640625	238.21693039856	-0.000243560791015625	0.556610107421875
229	0.55908203125	238.241330398498	-0.00023785400390625	0.55908203125
230	0.5615234375	238.265730398437	-0.000241546630859375	0.561553955078125
231	0.56396484375	238.290130398375	-0.000233489990234375	0.56396484375
232	0.56640625	238.314530398314	-0.000239410400390625	0.56640625
233	0.56884765625	238.338930398252	-0.000231842041015625	0.568817138671875
234	0.5712890625	238.36333039819	-0.000233917236328125	0.57122802734375
235	0.57373046875	238.387730398129	-0.000230194091796875	0.57373046875
236	0.576171875	238.412130398067	-0.000229461669921875	0.576202392578125
237	0.57861328125	238.436530398006	-0.000230621337890625	0.578582763671875
238	0.5810546875	238.460930397944	-0.00022509765625	0.581024169921875
239	0.58349609375	238.485330397882	-0.0002286376953125	0.583526611328125
240	0.5859375	238.509730397821	-0.000220458984375	0.585906982421875
241	0.58837890625	238.534130397759	-0.00022613525390625	0.58837890625
242	0.5908203125	238.558530397698	-0.000218475341796875	0.590789794921875
243	0.59326171875	238.582930397636	-0.000220733642578125	0.593292236328125
244	0.595703125	238.607330397574	-0.000216583251953125	0.595703125
245	0.59814453125	238.631730397513	-0.000216552734375	0.598175048828125
246	0.6005859375	238.656130397451	-0.000216827392578125	0.600555419921875
247	0.60302734375	238.68053039739	-0.0002115478515625	0.60302734375
248	0.60546875	238.704930397328	-0.000214569091796875	0.605438232421875
249	0.60791015625	238.729330397266	-0.000206634521484375	0.607879638671875
250	0.6103515625	238.753730397205	-0.000211761474609375	0.610321044921875
251	0.61279296875	238.778130397143	-0.000203582763671875	0.612762451171875
252	0.615234375	238.802530397082	-0.00020587158203125	0.615234375
253	0.61767578125	238.82693039702	-0.000200653076171875	0.61761474609375
254	0.6201171875	238.851330396958	-0.000200592041015625	0.620086669921875
255	0.62255859375	238.875730396897	-0.00019989013671875	0.622528076171875
256	0.625	238.900130396835	-0.000194366455078125	0.624969482421875
257	0.62744140625	238.924530396774	-0.000196563720703125	0.627410888671875
258	0.6298828125	238.948930396712	-0.00018798828125	0.6298828125
259	0.63232421875	238.97333039665	-0.00019293212890625	0.632354736328125
260	0.634765625	238.997730396589	-0.000183502197265625	0.634674072265625
261	0.63720703125	239.022130396527	-0.000185699462890625	0.63720703125
262	0.6396484375	239.046530396466	-0.0001795654296875	0.639617919921875
263	0.64208984375	239.070930396404	-0.000178924560546875	0.64202880859375
264	0.64453125	239.095330396342	-0.0001768798828125	0.6444091796875
265	0.64697265625	239.119730396281	-0.000170928955078125	0.646881103515625
266	0.6494140625	239.144130396219	-0.000171661376953125	0.649383544921875
267	0.65185546875	239.168530396158	-0.000162750244140625	0.651763916015625
268	0.654296875	239.192930396096	-0.000166534423828125	0.65423583984375
269	0.65673828125	239.217330396034	-0.000156768798828125	0.65667724609375
270	0.6591796875	239.241730395973	-0.000157958984375	0.659088134765625
271	0.66162109375	239.266130395911	-0.000150726318359375	0.661529541015625
272	0.6640625	239.290530395849	-0.000149810791015625	0.663970947265625
273	0.66650390625	239.314930395788	-0.000147308349609375	0.66644287109375
274	0.6689453125	239.339330395726	-0.000141265869140625	0.668914794921875
275	0.67138671875	239.363730395665	-0.00014111328125	0.6712646484375
276	0.673828125	239.388130395603	-0.0001322021484375	0.673736572265625
277	0.67626953125	239.412530395541	-0.00013568115234375	0.676177978515625
278	0.6787109375	239.43693039548	-0.000125335693359375	0.6785888671875
279	0.68115234375	239.461330395418	-0.00012640380859375	0.681060791015625
280	0.68359375	239.485730395357	-0.00011865234375	0.683502197265625
281	0.68603515625	239.510130395295	-0.00011785888671875	0.6859130859375
282	0.6884765625	239.534530395233	-0.0001141357421875	0.688385009765625
283	0.69091796875	239.558930395172	-0.000107940673828125	0.6907958984375
284	0.693359375	239.58333039511	-0.000107025146484375	0.693267822265625
285	0.69580078125	239.607730395049	-9.783935546875E-05	0.695709228515625
286	0.6982421875	239.632130394987	-0.00010003662109375	0.6981201171875
287	0.70068359375	239.656530394925	-8.8714599609375E-05	0.7005615234375
288	0.703125	239.680930394864	-8.8775634765625E-05	0.7030029296875
289	0.70556640625	239.705330394802	-7.9132080078125E-05	0.70538330078125
290	0.7080078125	239.729730394741	-7.77587890625E-05	0.707855224609375
291	0.71044921875	239.754130394679	-7.232666015625E-05	0.710296630859375
292	0.712890625	239.778530394617	-6.524658203125E-05	0.71282958984375
293	0.71533203125	239.802930394556	-6.2255859375E-05	0.7152099609375
294	0.7177734375	239.827330394494	-5.2276611328125E-05	0.717620849609375
295	0.72021484375	239.851730394433	-5.2459716796875E-05	0.720062255859375
296	0.72265625	239.876130394371	-3.9654541015625E-05	0.72247314453125
297	0.72509765625	239.900530394309	-3.824462890625E-05	0.725006103515625
298	0.7275390625	239.924930394248	-2.6959228515625E-05	0.727386474609375
299	0.72998046875	239.949330394186	-2.41485595703125E-05	0.729827880859375
300	0.732421875	239.973730394125	-1.6717529296875E-05	0.73223876953125
301	0.73486328125	239.998130394063	-8.197021484375E-06	0.73468017578125
302	0.7373046875	240.022530394001	-3.070068359375E-06	0.737152099609375
303	0.73974609375	240.04693039394	8.2305908203125E-06	0.739471435546875
304	0.7421875	240.071330393878	1.01837158203125E-05	0.74200439453125
305	0.74462890625	240.095730393817	2.39471435546875E-05	0.744476318359375
306	0.7470703125	240.120130393755	2.70599365234375E-05	0.746795654296875
307	0.74951171875	240.144530393693	4.02069091796875E-05	0.749237060546875
308	0.751953125	240.168930393632	4.4647216796875E-05	0.75103759765625
309	0.75439453125	240.19333039357	5.4656982421875E-05	0.75347900390625
310	0.7568359375	240.217730393509	6.3751220703125E-05	0.75592041015625
311	0.75927734375	240.242130393447	7.122802734375E-05	0.7586669921875
312	0.76171875	240.266530393385	8.3221435546875E-05	0.7611083984375
313	0.76416015625	240.290930393324	8.740234375E-05	0.7635498046875
314	0.7666015625	240.315330393262	0.000103057861328125	0.7659912109375
315	0.76904296875	240.339730393201	0.000108245849609375	0.7684326171875
316	0.771484375	240.364130393139	0.00012347412109375	0.77117919921875
317	0.77392578125	240.388530393077	0.000129852294921875	0.77362060546875
318	0.7763671875	240.412930393016	0.00014227294921875	0.77606201171875
319	0.77880859375	240.437330392954	0.00015325927734375	0.7781982421875
320	0.78125	240.461730392892	0.000163665771484375	0.780029296875
321	0.78369140625	240.486130392831	0.000177734375	0.78277587890625
322	0.7861328125	240.510530392769	0.000185638427734375	0.78582763671875
323	0.78857421875	240.534930392708	0.00020306396484375	0.787353515625
324	0.791015625	240.559330392646	0.000211334228515625	0.7904052734375
325	0.79345703125	240.583730392584	0.000229766845703125	0.79254150390625
326	0.7958984375	240.608130392523	0.000239013671875	0.794677734375
327	0.79833984375	240.632530392461	0.00025531005859375	0.7977294921875
328	0.80078125	240.6569303924	0.000269134521484375	0.79986572265625
329	0.80322265625	240.681330392338	0.0002838134765625	0.802001953125
330	0.8056640625	240.705730392276	0.0003004150390625	0.80474853515625
331	0.80810546875	240.730130392215	0.0003126220703125	0.8074951171875
332	0.810546875	240.754530392153	0.000332977294921875	0.80963134765625
333	0.81298828125	240.778930392092	0.00034588623046875	0.81207275390625
334	0.8154296875	240.80333039203	0.000367218017578125	0.8148193359375
335	0.81787109375	240.827730391968	0.000380828857421875	0.816650390625
336	0.8203125	240.852130391907	0.000400482177734375	0.8197021484375
337	0.82275390625	240.876530391845	0.0004180908203125	0.82183837890625
338	0.8251953125	240.900930391784	0.000436676025390625	0.82427978515625
339	0.82763671875	240.925330391722	0.000456878662109375	0.8270263671875
340	0.830078125	240.94973039166	0.0004736328125	0.8294677734375
341	0.83251953125	240.974130391599	0.000496856689453125	0.8319091796875
342	0.8349609375	240.998530391537	0.00051513671875	0.83404541015625
343	0.83740234375	241.022930391476	0.00053985595703125	0.8367919921875
344	0.83984375	241.047330391414	0.000557861328125	0.83953857421875
345	0.84228515625	241.071730391352	0.00058197021484375	0.8416748046875
346	0.8447265625	241.096130391291	0.0006036376953125	0.84381103515625
347	0.84716796875	241.120530391229	0.00062713623046875	0.8465576171875
348	0.849609375	241.144930391168	0.00065093994140625	0.8489990234375
349	0.85205078125	241.169330391106	0.00067352294921875	0.85113525390625
350	0.8544921875	241.193730391044	0.00070037841796875	0.8538818359375
351	0.85693359375	241.218130390983	0.00072357177734375	0.85601806640625
352	0.859375	241.242530390921	0.00075225830078125	0.858154296875
353	0.86181640625	241.26693039086	0.0007763671875	0.860595703125
354	0.8642578125	241.291330390798	0.0008050537109375	0.86334228515625
355	0.86669921875	241.315730390736	0.0008319091796875	0.8660888671875
356	0.869140625	241.340130390675	0.00086090087890625	0.86822509765625
357	0.87158203125	241.364530390613	0.000889892578125	0.87066650390625
358	0.8740234375	241.388930390552	0.0009185791015625	0.872802734375
359	0.87646484375	241.41333039049	0.00095001220703125	0.875244140625
360	0.87890625	241.437730390428	0.0009796142578125	0.877685546875
361	0.88134765625	241.462130390367	0.0010125732421875	0.8807373046875
362	0.8837890625	241.486530390305	0.00104339599609375	0.882568359375
363	0.88623046875	241.510930390244	0.0010772705078125	0.885009765625
364	0.888671875	241.535330390182	0.0011102294921875	0.887451171875
365	0.89111328125	241.55973039012	0.00114501953125	0.8905029296875
366	0.8935546875	241.584130390059	0.00117889404296875	0.8929443359375
367	0.89599609375	241.608530389997	0.00121490478515625	0.8953857421875
368	0.8984375	241.632930389935	0.0012506103515625	0.897216796875
369	0.90087890625	241.657330389874	0.00128753662109375	0.899658203125
370	0.9033203125	241.681730389812	0.00132537841796875	0.902099609375
371	0.90576171875	241.706130389751	0.001363525390625	0.90545654296875
372	0.908203125	241.730530389689	0.0014019775390625	0.906982421875
373	0.91064453125	241.754930389627	0.00144134521484375	0.90972900390625
374	0.9130859375	241.779330389566	0.0014825439453125	0.911865234375
375	0.91552734375	241.803730389504	0.0015228271484375	0.9149169921875
376	0.91796875	241.828130389443	0.00156524658203125	0.91766357421875
377	0.92041015625	241.852530389381	0.00160675048828125	0.9197998046875
378	0.9228515625	241.876930389319	0.0016510009765625	0.9222412109375
379	0.92529296875	241.901330389258	0.0016943359375	0.92437744140625
380	0.927734375	241.925730389196	0.00173919677734375	0.92681884765625
381	0.93017578125	241.950130389135	0.00178436279296875	0.9295654296875
382	0.9326171875	241.974530389073	0.0018304443359375	0.931396484375
383	0.93505859375	241.998930389011	0.0018780517578125	0.93414306640625
384	0.9375	242.02333038895	0.00192535400390625	0.9375
385	0.93994140625	242.047730388888	0.00197509765625	0.93963623046875
386	0.9423828125	242.072130388827	0.0020220947265625	0.941162109375
387	0.94482421875	242.096530388765	0.002073974609375	0.94390869140625
388	0.947265625	242.120930388703	0.002122802734375	0.946044921875
389	0.94970703125	242.145330388642	0.00217620849609375	0.94879150390625
390	0.9521484375	242.16973038858	0.00222686767578125	0.95123291015625
391	0.95458984375	242.194130388519	0.0022802734375	0.9539794921875
392	0.95703125	242.218530388457	0.00233428955078125	0.95611572265625
393	0.95947265625	242.242930388395	0.00238800048828125	0.9588623046875
394	0.9619140625	242.267330388334	0.0024444580078125	0.960693359375
395	0.96435546875	242.291730388272	0.00249786376953125	0.96343994140625
396	0.966796875	242.316130388211	0.0025567626953125	0.965576171875
397	0.96923828125	242.340530388149	0.00261138916015625	0.968017578125
398	0.9716796875	242.364930388087	0.002672119140625	0.970458984375
399	0.97412109375	242.389330388026	0.002728271484375	0.972900390625
400	0.9765625	242.413730387964	0.002789306640625	0.97503662109375
401	0.97900390625	242.438130387903	0.00284942626953125	0.9783935546875
402	0.9814453125	242.462530387841	0.0029095458984375	0.98052978515625
403	0.98388671875	242.486930387779	0.0029730224609375	0.9832763671875
404	0.986328125	242.511330387718	0.0030322265625	0.9857177734375
405	0.98876953125	242.535730387656	0.00309814453125	0.98785400390625
406	0.9912109375	242.560130387595	0.0031585693359375	0.989990234375
407	0.99365234375	242.584530387533	0.003226318359375	0.9930419921875
408	0.99609375	242.608930387471	0.0032879638671875	0.994873046875
409	0.99853515625	242.63333038741	0.0033551025390625	0.9979248046875
410	1.0009765625	242.657730387348	0.00342071533203125	1.00006103515625
411	1.00341796875	242.682130387287	0.0034869384765625	1.00311279296875
412	1.005859375	242.706530387225	0.0035546875	1.004638671875
413	1.00830078125	242.730930387163	0.0036181640625	1.007080078125
414	1.0107421875	242.755330387102	0.00368804931640625	1.01043701171875
415	1.01318359375	242.77973038704	0.00375091552734375	1.0125732421875
416	1.015625	242.804130386978	0.00382049560546875	1.0150146484375
417	1.01806640625	242.828530386917	0.00388214111328125	1.01715087890625
418	1.0205078125	242.852930386855	0.00394805908203125	1.01959228515625
419	1.02294921875	242.877330386794	0.00401031494140625	1.0223388671875
420	1.025390625	242.901730386732	0.00407196044921875	1.02447509765625
421	1.02783203125	242.92613038667	0.00413238525390625	1.026611328125
422	1.0302734375	242.950530386609	0.00418853759765625	1.029052734375
423	1.03271484375	242.974930386547	0.004246826171875	1.03179931640625
424	1.03515625	242.999330386486	0.004298095703125	1.033935546875
425	1.03759765625	243.023730386424	0.00435302734375	1.036376953125
426	1.0400390625	243.048130386362	0.00439971923828125	1.0394287109375
427	1.04248046875	243.072530386301	0.0044488525390625	1.04095458984375
428	1.044921875	243.096930386239	0.00449371337890625	1.043701171875
429	1.04736328125	243.121330386178	0.004537353515625	1.04644775390625
430	1.0498046875	243.145730386116	0.00457977294921875	1.048583984375
431	1.05224609375	243.170130386054	0.0046185302734375	1.05133056640625
432	1.0546875	243.194530385993	0.00465850830078125	1.053466796875
433	1.05712890625	243.218930385931	0.00469390869140625	1.05621337890625
434	1.0595703125	243.24333038587	0.0047314453125	1.0589599609375
435	1.06201171875	243.267730385808	0.00476348876953125	1.06109619140625
436	1.064453125	243.292130385746	0.00479766845703125	1.06353759765625
437	1.06689453125	243.316530385685	0.00482879638671875	1.06597900390625
438	1.0693359375	243.340930385623	0.004859619140625	1.06842041015625
439	1.07177734375	243.365330385562	0.0048895263671875	1.07086181640625
440	1.07421875	243.3897303855	0.0049176025390625	1.072998046875
441	1.07666015625	243.414130385438	0.0049462890625	1.075439453125
442	1.0791015625	243.438530385377	0.0049725341796875	1.07818603515625
443	1.08154296875	243.462930385315	0.005	1.08062744140625
444	1.083984375	243.487330385254	0.00502410888671875	1.0833740234375
445	1.08642578125	243.511730385192	0.00504974365234375	1.085205078125
446	1.0888671875	243.53613038513	0.00507354736328125	1.087646484375
447	1.09130859375	243.560530385069	0.00509735107421875	1.09039306640625
448	1.09375	243.584930385007	0.0051202392578125	1.092529296875
449	1.09619140625	243.609330384946	0.00514251708984375	1.09466552734375
450	1.0986328125	243.633730384884	0.005164794921875	1.0980224609375
451	1.10107421875	243.658130384822	0.005185546875	1.10015869140625
452	1.103515625	243.682530384761	0.00520751953125	1.10260009765625
453	1.10595703125	243.706930384699	0.00522674560546875	1.104736328125
454	1.1083984375	243.731330384638	0.00524749755859375	1.10748291015625
455	1.11083984375	243.755730384576	0.0052667236328125	1.109619140625
456	1.11328125	243.780130384514	0.0052862548828125	1.11236572265625
457	1.11572265625	243.804530384453	0.00530487060546875	1.1151123046875
458	1.1181640625	243.828930384391	0.005323486328125	1.11663818359375
459	1.12060546875	243.85333038433	0.005341796875	1.119384765625
460	1.123046875	243.877730384268	0.00535919189453125	1.121826171875
461	1.12548828125	243.902130384206	0.00537750244140625	1.12457275390625
462	1.1279296875	243.926530384145	0.0053936767578125	1.126708984375
463	1.13037109375	243.950930384083	0.005411376953125	1.12945556640625
464	1.1328125	243.975330384022	0.00542755126953125	1.131591796875
465	1.13525390625	243.99973038396	0.0054443359375	1.13433837890625
466	1.1376953125	244.024130383898	0.005460205078125	1.13677978515625
467	1.14013671875	244.048530383837	0.00547607421875	1.13861083984375
468	1.142578125	244.072930383775	0.005491943359375	1.141357421875
469	1.14501953125	244.097330383713	0.00550689697265625	1.143798828125
470	1.1474609375	244.121730383652	0.0055224609375	1.1456298828125
471	1.14990234375	244.14613038359	0.00553680419921875	1.1492919921875
472	1.15234375	244.170530383529	0.00555206298828125	1.1517333984375
473	1.15478515625	244.194930383467	0.00556640625	1.1541748046875
474	1.1572265625	244.219330383405	0.0055810546875	1.15631103515625
475	1.15966796875	244.243730383344	0.0055950927734375	1.15875244140625
476	1.162109375	244.268130383282	0.005609130859375	1.16119384765625
477	1.16455078125	244.292530383221	0.0056231689453125	1.16363525390625
478	1.1669921875	244.316930383159	0.0056365966796875	1.165771484375
479	1.16943359375	244.341330383097	0.00565032958984375	1.1688232421875
480	1.171875	244.365730383036	0.0056634521484375	1.1712646484375
481	1.17431640625	244.390130382974	0.0056768798828125	1.17340087890625
482	1.1767578125	244.414530382913	0.005689697265625	1.17584228515625
483	1.17919921875	244.438930382851	0.00570281982421875	1.177978515625
484	1.181640625	244.463330382789	0.00571563720703125	1.18011474609375
485	1.18408203125	244.487730382728	0.0057281494140625	1.18255615234375
486	1.1865234375	244.512130382666	0.005740966796875	1.185302734375
487	1.18896484375	244.536530382605	0.005753173828125	1.18804931640625
488	1.19140625	244.560930382543	0.005765380859375	1.19049072265625
489	1.19384765625	244.585330382481	0.00577728271484375	1.1932373046875
490	1.1962890625	244.60973038242	0.00578948974609375	1.195068359375
491	1.19873046875	244.634130382358	0.00580108642578125	1.19720458984375
492	1.201171875	244.658530382297	0.00581298828125	1.20025634765625
493	1.19873046875	244.682930382235	0.00579742431640625	1.1981201171875
494	1.1962890625	244.707330382173	0.00578155517578125	1.195068359375
495	1.19384765625	244.731730382112	0.0057659912109375	1.192626953125
496	1.19140625	244.75613038205	0.00574951171875	1.18988037109375
497	1.18896484375	244.780530381989	0.005733642578125	1.187744140625
498	1.1865234375	244.804930381927	0.005716552734375	1.1859130859375
499	1.18408203125	244.829330381865	0.00570037841796875	1.182861328125
500	1.181640625	244.853730381804	0.0056829833984375	1.180419921875
501	1.17919921875	244.878130381742	0.00566619873046875	1.177978515625
502	1.1767578125	244.902530381681	0.00564849853515625	1.175537109375
503	1.17431640625	244.926930381619	0.00563079833984375	1.17279052734375
504	1.171875	244.951330381557	0.00561309814453125	1.17095947265625
505	1.16943359375	244.975730381496	0.005594482421875	1.16851806640625
506	1.1669921875	245.000130381434	0.00557647705078125	1.165771484375
507	1.16455078125	245.024530381373	0.00555694580078125	1.16363525390625
508	1.162109375	245.048930381311	0.005538330078125	1.160888671875
509	1.15966796875	245.073330381249	0.00551849365234375	1.158447265625
510	1.1572265625	245.097730381188	0.00549896240234375	1.15631103515625
511	1.15478515625	245.122130381126	0.00547821044921875	1.1541748046875
512	1.15234375	245.146530381065	0.005457763671875	1.1517333984375
513	1.14990234375	245.170930381003	0.00543701171875	1.14898681640625
514	1.1474609375	245.195330380941	0.00541534423828125	1.146240234375
515	1.14501953125	245.21973038088	0.0053936767578125	1.14410400390625
516	1.142578125	245.244130380818	0.00537078857421875	1.14166259765625
517	1.14013671875	245.268530380756	0.00534820556640625	1.13861083984375
518	1.1376953125	245.292930380695	0.00532440185546875	1.1370849609375
519	1.13525390625	245.317330380633	0.0053009033203125	1.134033203125
520	1.1328125	245.341730380572	0.00527587890625	1.131591796875
521	1.13037109375	245.36613038051	0.00525054931640625	1.1297607421875
522	1.1279296875	245.390530380448	0.00522491455078125	1.126708984375
523	1.12548828125	245.414930380387	0.00519805908203125	1.124267578125
524	1.123046875	245.439330380325	0.0051708984375	1.12213134765625
525	1.12060546875	245.463730380264	0.0051422119140625	1.11968994140625
526	1.1181640625	245.488130380202	0.005113525390625	1.11663818359375
527	1.11572265625	245.51253038014	0.0050830078125	1.114501953125
528	1.11328125	245.536930380079	0.005052490234375	1.11175537109375
529	1.11083984375	245.561330380017	0.00501983642578125	1.10992431640625
530	1.1083984375	245.585730379956	0.00498687744140625	1.107177734375
531	1.10595703125	245.610130379894	0.004952392578125	1.10504150390625
532	1.103515625	245.634530379832	0.0049163818359375	1.10260009765625
533	1.10107421875	245.658930379771	0.00487945556640625	1.099853515625
534	1.0986328125	245.683330379709	0.00483978271484375	1.0980224609375
535	1.09619140625	245.707730379648	0.0047998046875	1.09466552734375
536	1.09375	245.732130379586	0.00475616455078125	1.0931396484375
537	1.09130859375	245.756530379524	0.0047125244140625	1.090087890625
538	1.0888671875	245.780930379463	0.00466461181640625	1.08795166015625
539	1.08642578125	245.805330379401	0.004615478515625	1.08551025390625
540	1.083984375	245.82973037934	0.0045635986328125	1.08306884765625
541	1.08154296875	245.854130379278	0.0045086669921875	1.08062744140625
542	1.0791015625	245.878530379216	0.0044512939453125	1.077880859375
543	1.07666015625	245.902930379155	0.00438873291015625	1.07574462890625
544	1.07421875	245.927330379093	0.00432586669921875	1.0736083984375
545	1.07177734375	245.951730379032	0.00425689697265625	1.0711669921875
546	1.0693359375	245.97613037897	0.00418701171875	1.068115234375
547	1.06689453125	246.000530378908	0.0041119384765625	1.0662841796875
548	1.064453125	246.024930378847	0.00403533935546875	1.063232421875
549	1.06201171875	246.049330378785	0.00395660400390625	1.0614013671875
550	1.0595703125	246.073730378724	0.003875732421875	1.05865478515625
551	1.05712890625	246.098130378662	0.0037939453125	1.05621337890625
552	1.0546875	246.1225303786	0.00370941162109375	1.0540771484375
553	1.05224609375	246.146930378539	0.00362762451171875	1.05072021484375
554	1.0498046875	246.171330378477	0.00354339599609375	1.048583984375
555	1.04736328125	246.195730378416	0.00346160888671875	1.046142578125
556	1.044921875	246.220130378354	0.00337860107421875	1.04400634765625
557	1.04248046875	246.244530378292	0.00329803466796875	1.0418701171875
558	1.0400390625	246.268930378231	0.0032177734375	1.03912353515625
559	1.03759765625	246.293330378169	0.00313812255859375	1.0369873046875
560	1.03515625	246.317730378108	0.00306060791015625	1.033935546875
561	1.03271484375	246.342130378046	0.00298309326171875	1.031494140625
562	1.0302734375	246.366530377984	0.00290863037109375	1.02935791015625
563	1.02783203125	246.390930377923	0.0028338623046875	1.0272216796875
564	1.025390625	246.415330377861	0.00276153564453125	1.02447509765625
565	1.02294921875	246.439730377799	0.00269012451171875	1.021728515625
566	1.0205078125	246.464130377738	0.00262054443359375	1.01959228515625
567	1.01806640625	246.488530377676	0.0025518798828125	1.01715087890625
568	1.015625	246.512930377615	0.00248443603515625	1.01470947265625
569	1.01318359375	246.537330377553	0.0024188232421875	1.011962890625
570	1.0107421875	246.561730377491	0.0023541259765625	1.009521484375
571	1.00830078125	246.58613037743	0.00229156494140625	1.00738525390625
572	1.005859375	246.610530377368	0.00222991943359375	1.004638671875
573	1.00341796875	246.634930377307	0.00216949462890625	1.00250244140625
574	1.0009765625	246.659330377245	0.002110595703125	0.999755859375
575	0.99853515625	246.683730377183	0.00205291748046875	0.99761962890625
576	0.99609375	246.708130377122	0.00199737548828125	0.99517822265625
577	0.99365234375	246.73253037706	0.001942138671875	0.99273681640625
578	0.9912109375	246.756930376999	0.001888427734375	0.99029541015625
579	0.98876953125	246.781330376937	0.00183624267578125	0.98785400390625
580	0.986328125	246.805730376875	0.00178497314453125	0.9857177734375
581	0.98388671875	246.830130376814	0.00173614501953125	0.9832763671875
582	0.9814453125	246.854530376752	0.00168609619140625	0.980224609375
583	0.97900390625	246.878930376691	0.00163970947265625	0.977783203125
584	0.9765625	246.903330376629	0.00159271240234375	0.975341796875
585	0.97412109375	246.927730376567	0.0015484619140625	0.97320556640625
586	0.9716796875	246.952130376506	0.00150421142578125	0.97076416015625
587	0.96923828125	246.976530376444	0.00146087646484375	0.9686279296875
588	0.966796875	247.000930376383	0.001419677734375	0.96588134765625
589	0.96435546875	247.025330376321	0.00137847900390625	0.9637451171875
590	0.9619140625	247.049730376259	0.00134063720703125	0.960693359375
591	0.95947265625	247.074130376198	0.001300048828125	0.958251953125
592	0.95703125	247.098530376136	0.0012646484375	0.955810546875
593	0.95458984375	247.122930376075	0.00122650146484375	0.953369140625
594	0.9521484375	247.147330376013	0.00119293212890625	0.95123291015625
595	0.94970703125	247.171730375951	0.0011572265625	0.948486328125
596	0.947265625	247.19613037589	0.0011236572265625	0.946044921875
597	0.94482421875	247.220530375828	0.0010919189453125	0.943603515625
598	0.9423828125	247.244930375767	0.00105865478515625	0.9417724609375
599	0.93994140625	247.269330375705	0.00102996826171875	0.938720703125
600	0.9375	247.293730375643	0.000997314453125	0.9368896484375
601	0.93505859375	247.318130375582	0.000970458984375	0.9344482421875
602	0.9326171875	247.34253037552	0.00093994140625	0.93170166015625
603	0.93017578125	247.366930375459	0.000914306640625	0.92926025390625
604	0.927734375	247.391330375397	0.00088592529296875	0.9271240234375
605	0.92529296875	247.415730375335	0.0008599853515625	0.924072265625
606	0.9228515625	247.440130375274	0.00083526611328125	0.9222412109375
607	0.92041015625	247.464530375212	0.0008087158203125	0.9197998046875
608	0.91796875	247.488930375151	0.00078704833984375	0.91705322265625
609	0.91552734375	247.513330375089	0.00076019287109375	0.914306640625
610	0.9130859375	247.537730375027	0.000740966796875	0.91217041015625
611	0.91064453125	247.562130374966	0.0007159423828125	0.90972900390625
612	0.908203125	247.586530374904	0.000697021484375	0.90789794921875
613	0.90576171875	247.610930374842	0.00067352294921875	0.9051513671875
614	0.9033203125	247.635330374781	0.00065338134765625	0.90240478515625
615	0.90087890625	247.659730374719	0.00063385009765625	0.90087890625
616	0.8984375	247.684130374658	0.00061279296875	0.897216796875
617	0.89599609375	247.708530374596	0.000596923828125	0.8953857421875
618	0.8935546875	247.732930374534	0.00057403564453125	0.8929443359375
619	0.89111328125	247.757330374473	0.000560302734375	0.89019775390625
620	0.888671875	247.781730374411	0.00053924560546875	0.8880615234375
621	0.88623046875	247.80613037435	0.00052581787109375	0.885009765625
622	0.8837890625	247.830530374288	0.0005059814453125	0.8831787109375
623	0.88134765625	247.854930374226	0.000489898681640625	0.8807373046875
624	0.87890625	247.879330374165	0.000474853515625	0.877685546875
625	0.87646484375	247.903730374103	0.00045770263671875	0.8758544921875
626	0.8740234375	247.928130374042	0.00044561767578125	0.87310791015625
627	0.87158203125	247.95253037398	0.000426513671875	0.87066650390625
628	0.869140625	247.976930373918	0.000417236328125	0.8685302734375
629	0.86669921875	248.001330373857	0.000399383544921875	0.86578369140625
630	0.8642578125	248.025730373795	0.00038970947265625	0.86395263671875
631	0.86181640625	248.050130373734	0.000373321533203125	0.86090087890625
632	0.859375	248.074530373672	0.00036090087890625	0.8587646484375
633	0.85693359375	248.09893037361	0.000348663330078125	0.855712890625
634	0.8544921875	248.123330373549	0.00033477783203125	0.85418701171875
635	0.85205078125	248.147730373487	0.000325714111328125	0.85113525390625
636	0.849609375	248.172130373426	0.00030902099609375	0.848388671875
637	0.84716796875	248.196530373364	0.000303070068359375	0.8465576171875
638	0.8447265625	248.220930373302	0.000287017822265625	0.84381103515625
639	0.84228515625	248.245330373241	0.0002806396484375	0.84136962890625
640	0.83984375	248.269730373179	0.000265869140625	0.83892822265625
641	0.83740234375	248.294130373118	0.00025665283203125	0.836181640625
642	0.8349609375	248.318530373056	0.000246490478515625	0.83404541015625
643	0.83251953125	248.342930372994	0.000235076904296875	0.8319091796875
644	0.830078125	248.367330372933	0.000227752685546875	0.8294677734375
645	0.82763671875	248.391730372871	0.000212921142578125	0.8270263671875
646	0.8251953125	248.41613037281	0.000209136962890625	0.8245849609375
647	0.82275390625	248.440530372748	0.0001947021484375	0.82244873046875
648	0.8203125	248.464930372686	0.000190582275390625	0.81939697265625
649	0.81787109375	248.489330372625	0.000177093505859375	0.81695556640625
650	0.8154296875	248.513730372563	0.00016961669921875	0.8148193359375
651	0.81298828125	248.538130372502	0.000161163330078125	0.81268310546875
652	0.810546875	248.56253037244	0.000151458740234375	0.8099365234375
653	0.80810546875	248.586930372378	0.00014544677734375	0.8074951171875
654	0.8056640625	248.611330372317	0.000132110595703125	0.80474853515625
655	0.80322265625	248.635730372255	0.000129669189453125	0.802001953125
656	0.80078125	248.660130372194	0.000116607666015625	0.8001708984375
657	0.79833984375	248.684530372132	0.000114227294921875	0.79742431640625
658	0.7958984375	248.70893037207	0.000101959228515625	0.794677734375
659	0.79345703125	248.733330372009	9.6343994140625E-05	0.79254150390625
660	0.791015625	248.757730371947	8.88671875E-05	0.7904052734375
661	0.78857421875	248.782130371886	8.06884765625E-05	0.78765869140625
662	0.7861328125	248.806530371824	7.6080322265625E-05	0.7855224609375
663	0.78369140625	248.830930371762	6.4208984375E-05	0.78277587890625
664	0.78125	248.855330371701	6.3232421875E-05	0.78094482421875
665	0.77880859375	248.879730371639	5.120849609375E-05	0.7781982421875
666	0.7763671875	248.904130371577	5.06591796875E-05	0.77545166015625
667	0.77392578125	248.928530371516	3.9166259765625E-05	0.7733154296875
668	0.771484375	248.952930371454	3.53729248046875E-05	0.771484375
669	0.76904296875	248.977330371393	2.864990234375E-05	0.7684326171875
670	0.7666015625	249.001730371331	2.19573974609375E-05	0.76629638671875
671	0.76416015625	249.026130371269	1.84783935546875E-05	0.76324462890625
672	0.76171875	249.050530371208	7.861328125E-06	0.76080322265625
673	0.75927734375	249.074930371146	8.3526611328125E-06	0.7586669921875
674	0.7568359375	249.099330371085	-2.7130126953125E-06	0.7562255859375
675	0.75439453125	249.123730371023	-2.099609375E-06	0.7537841796875
676	0.751953125	249.148130370961	-1.2762451171875E-05	0.75164794921875
677	0.74951171875	249.1725303709	-1.53900146484375E-05	0.74932861328125
678	0.7470703125	249.196930370838	-2.1331787109375E-05	0.74688720703125
679	0.74462890625	249.221330370777	-2.7001953125E-05	0.7445068359375
680	0.7421875	249.245730370715	-3.01177978515625E-05	0.742095947265625
681	0.73974609375	249.270130370653	-3.9996337890625E-05	0.739654541015625
682	0.7373046875	249.294530370592	-3.89312744140625E-05	0.737152099609375
683	0.73486328125	249.31893037053	-4.931640625E-05	0.734771728515625
684	0.732421875	249.343330370469	-4.79736328125E-05	0.732269287109375
685	0.72998046875	249.367730370407	-5.853271484375E-05	0.729888916015625
686	0.7275390625	249.392130370345	-6.011962890625E-05	0.727447509765625
687	0.72509765625	249.416530370284	-6.591796875E-05	0.7249755859375
688	0.72265625	249.440930370222	-7.0892333984375E-05	0.7225341796875
689	0.72021484375	249.465330370161	-7.38525390625E-05	0.7200927734375
690	0.7177734375	249.489730370099	-8.2855224609375E-05	0.717681884765625
691	0.71533203125	249.514130370037	-8.1634521484375E-05	0.715240478515625
692	0.712890625	249.538530369976	-9.1461181640625E-05	0.7127685546875
693	0.71044921875	249.562930369914	-8.8958740234375E-05	0.710418701171875
694	0.7080078125	249.587330369853	-9.9273681640625E-05	0.707916259765625
695	0.70556640625	249.611730369791	-9.942626953125E-05	0.70550537109375
696	0.703125	249.636130369729	-0.00010498046875	0.70306396484375
697	0.70068359375	249.660530369668	-0.0001087646484375	0.70068359375
698	0.6982421875	249.684930369606	-0.0001109619140625	0.6982421875
699	0.69580078125	249.709330369545	-0.000119049072265625	0.69580078125
700	0.693359375	249.733730369483	-0.000116851806640625	0.693359375
701	0.69091796875	249.758130369421	-0.000125823974609375	0.69091796875
702	0.6884765625	249.78253036936	-0.000122650146484375	0.688507080078125
703	0.68603515625	249.806930369298	-0.000132232666015625	0.68603515625
704	0.68359375	249.831330369237	-0.000131561279296875	0.683624267578125
705	0.68115234375	249.855730369175	-0.000136566162109375	0.681182861328125
706	0.6787109375	249.880130369113	-0.000138946533203125	0.678802490234375
707	0.67626953125	249.904530369052	-0.00014080810546875	0.67633056640625
708	0.673828125	249.92893036899	-0.00014801025390625	0.6739501953125
709	0.67138671875	249.953330368929	-0.0001455078125	0.6715087890625
710	0.6689453125	249.977730368867	-0.000153717041015625	0.669036865234375
711	0.66650390625	250.002130368805	-0.00014984130859375	0.666595458984375
712	0.6640625	250.026530368744	-0.000159088134765625	0.664154052734375
713	0.66162109375	250.050930368682	-0.000157440185546875	0.6617431640625
714	0.6591796875	250.07533036862	-0.000162078857421875	0.6593017578125
715	0.65673828125	250.099730368559	-0.000164276123046875	0.656829833984375
716	0.654296875	250.124130368497	-0.000166259765625	0.654388427734375
717	0.65185546875	250.148530368436	-0.0001728515625	0.651947021484375
718	0.6494140625	250.172930368374	-0.000170196533203125	0.64947509765625
719	0.64697265625	250.197330368312	-0.00017852783203125	0.647064208984375
720	0.64453125	250.221730368251	-0.000174285888671875	0.644683837890625
721	0.64208984375	250.246130368189	-0.00018353271484375	0.642242431640625
722	0.6396484375	250.270530368128	-0.000181396484375	0.639801025390625
723	0.63720703125	250.294930368066	-0.00018609619140625	0.6373291015625
724	0.634765625	250.319330368004	-0.000187469482421875	0.6348876953125
725	0.63232421875	250.343730367943	-0.0001895751953125	0.63250732421875
726	0.6298828125	250.368130367881	-0.000195404052734375	0.630035400390625
727	0.62744140625	250.39253036782	-0.0001925048828125	0.62762451171875
728	0.625	250.416930367758	-0.00020013427734375	0.6251220703125
729	0.62255859375	250.441330367696	-0.000195526123046875	0.622772216796875
730	0.6201171875	250.465730367635	-0.000204437255859375	0.620269775390625
731	0.61767578125	250.490130367573	-0.0002012939453125	0.61785888671875
732	0.615234375	250.514530367512	-0.000206085205078125	0.61541748046875
733	0.61279296875	250.53893036745	-0.000206268310546875	0.613006591796875
734	0.6103515625	250.563330367388	-0.00020819091796875	0.610565185546875
735	0.60791015625	250.587730367327	-0.000213104248046875	0.60809326171875
736	0.60546875	250.612130367265	-0.000209869384765625	0.60565185546875
737	0.60302734375	250.636530367204	-0.000216705322265625	0.603240966796875
738	0.6005859375	250.660930367142	-0.00021160888671875	0.600799560546875
739	0.59814453125	250.68533036708	-0.00022015380859375	0.59832763671875
740	0.595703125	250.709730367019	-0.000216064453125	0.595947265625
741	0.59326171875	250.734130366957	-0.00022064208984375	0.593475341796875
742	0.5908203125	250.758530366896	-0.00022021484375	0.591094970703125
743	0.58837890625	250.782930366834	-0.00022198486328125	0.588653564453125
744	0.5859375	250.807330366772	-0.000226226806640625	0.586151123046875
745	0.58349609375	250.831730366711	-0.000223297119140625	0.583709716796875
746	0.5810546875	250.856130366649	-0.0002298583984375	0.581329345703125
747	0.57861328125	250.880530366588	-0.000224609375	0.578857421875
748	0.576171875	250.904930366526	-0.00023333740234375	0.57635498046875
749	0.57373046875	250.929330366464	-0.00022894287109375	0.57403564453125
750	0.5712890625	250.953730366403	-0.000234039306640625	0.571502685546875
751	0.56884765625	250.978130366341	-0.000233184814453125	0.569122314453125
752	0.56640625	251.00253036628	-0.0002354736328125	0.56671142578125
753	0.56396484375	251.026930366218	-0.000239410400390625	0.56427001953125
754	0.5615234375	251.051330366156	-0.000236419677734375	0.561798095703125
755	0.55908203125	251.075730366095	-0.00024267578125	0.559326171875
756	0.556640625	251.100130366033	-0.000237548828125	0.55694580078125
757	0.55419921875	251.124530365972	-0.000246337890625	0.55450439453125
758	0.5517578125	251.14893036591	-0.000241180419921875	0.552032470703125
759	0.54931640625	251.173330365848	-0.00024627685546875	0.54962158203125
760	0.546875	251.197730365787	-0.00024481201171875	0.54718017578125
761	0.54443359375	251.222130365725	-0.000247344970703125	0.54473876953125
762	0.5419921875	251.246530365663	-0.000250152587890625	0.542266845703125
763	0.53955078125	251.270930365602	-0.00024737548828125	0.53985595703125
764	0.537109375	251.29533036554	-0.0002530517578125	0.53741455078125
765	0.53466796875	251.319730365479	-0.0002476806640625	0.535003662109375
766	0.5322265625	251.344130365417	-0.000256103515625	0.532501220703125
767	0.52978515625	251.368530365355	-0.000250518798828125	0.53009033203125
768	0.52734375	251.392930365294	-0.000255523681640625	0.52764892578125
769	0.52490234375	251.417330365232	-0.000253173828125	0.525177001953125
770	0.5224609375	251.441730365171	-0.00025567626953125	0.522796630859375
771	0.52001953125	251.466130365109	-0.00025836181640625	0.52032470703125
772	0.517578125	251.490530365047	-0.000255523681640625	0.517791748046875
773	0.51513671875	251.514930364986	-0.00026043701171875	0.515472412109375
774	0.5126953125	251.539330364924	-0.000254974365234375	0.5130615234375
775	0.51025390625	251.563730364863	-0.000263092041015625	0.510528564453125
776	0.5078125	251.588130364801	-0.00025701904296875	0.508056640625
777	0.50537109375	251.612530364739	-0.000262176513671875	0.505706787109375
778	0.5029296875	251.636930364678	-0.00025946044921875	0.503265380859375
779	0.50048828125	251.661330364616	-0.00026239013671875	0.50079345703125
780	0.498046875	251.685730364555	-0.000264129638671875	0.498321533203125
781	0.49560546875	251.710130364493	-0.000262115478515625	0.4959716796875
782	0.4931640625	251.734530364431	-0.00026727294921875	0.493499755859375
783	0.49072265625	251.75893036437	-0.000262298583984375	0.49102783203125
784	0.48828125	251.783330364308	-0.000270751953125	0.488555908203125
785	0.48583984375	251.807730364247	-0.000264434814453125	0.486114501953125
786	0.4833984375	251.832130364185	-0.00027020263671875	0.4837646484375
787	0.48095703125	251.856530364123	-0.000266937255859375	0.4813232421875
788	0.478515625	251.880930364062	-0.0002703857421875	0.4788818359375
789	0.47607421875	251.905330364	-0.0002718505859375	0.4764404296875
790	0.4736328125	251.929730363939	-0.000270050048828125	0.4739990234375
791	0.47119140625	251.954130363877	-0.000274627685546875	0.471588134765625
792	0.46875	251.978530363815	-0.00026971435546875	0.469085693359375
793	0.46630859375	252.002930363754	-0.000277923583984375	0.466644287109375
794	0.4638671875	252.027330363692	-0.000271209716796875	0.464263916015625
795	0.46142578125	252.051730363631	-0.000277191162109375	0.461761474609375
796	0.458984375	252.076130363569	-0.0002733154296875	0.459381103515625
797	0.45654296875	252.100530363507	-0.000276947021484375	0.4569091796875
798	0.4541015625	252.124930363446	-0.000277557373046875	0.4544677734375
799	0.45166015625	252.149330363384	-0.000275787353515625	0.4520263671875
800	0.44921875	252.173730363323	-0.000279754638671875	0.449615478515625
801	0.44677734375	252.198130363261	-0.000274871826171875	0.4471435546875
802	0.4443359375	252.222530363199	-0.00028277587890625	0.4447021484375
803	0.44189453125	252.246930363138	-0.000275604248046875	0.442230224609375
804	0.439453125	252.271330363076	-0.0002813720703125	0.439849853515625
805	0.43701171875	252.295730363015	-0.000276885986328125	0.437469482421875
806	0.4345703125	252.320130362953	-0.00028106689453125	0.43499755859375
807	0.43212890625	252.344530362891	-0.000281219482421875	0.432525634765625
808	0.4296875	252.36893036283	-0.000279876708984375	0.4300537109375
809	0.42724609375	252.393330362768	-0.000283355712890625	0.427703857421875
810	0.4248046875	252.417730362706	-0.000278717041015625	0.425201416015625
811	0.42236328125	252.442130362645	-0.000286376953125	0.422760009765625
812	0.419921875	252.466530362583	-0.00027911376953125	0.420318603515625
813	0.41748046875	252.490930362522	-0.0002852783203125	0.417877197265625
814	0.4150390625	252.51533036246	-0.0002802734375	0.41546630859375
815	0.41259765625	252.539730362398	-0.000285064697265625	0.41302490234375
816	0.41015625	252.564130362337	-0.0002845458984375	0.41058349609375
817	0.40771484375	252.588530362275	-0.000283660888671875	0.40802001953125
818	0.4052734375	252.612930362214	-0.000286834716796875	0.40570068359375
819	0.40283203125	252.637330362152	-0.00028271484375	0.403228759765625
820	0.400390625	252.66173036209	-0.00029034423828125	0.40081787109375
821	0.39794921875	252.686130362029	-0.00028314208984375	0.398406982421875
822	0.3955078125	252.710530361967	-0.000289581298828125	0.395904541015625
823	0.39306640625	252.734930361906	-0.0002843017578125	0.39349365234375
824	0.390625	252.759330361844	-0.0002894287109375	0.391021728515625
825	0.38818359375	252.783730361782	-0.00028857421875	0.388671875
826	0.3857421875	252.808130361721	-0.000287933349609375	0.3861083984375
827	0.38330078125	252.832530361659	-0.00029058837890625	0.383758544921875
828	0.380859375	252.856930361598	-0.000286712646484375	0.381317138671875
829	0.37841796875	252.881330361536	-0.0002938232421875	0.378814697265625
830	0.3759765625	252.905730361474	-0.000286529541015625	0.37640380859375
831	0.37353515625	252.930130361413	-0.000292633056640625	0.373931884765625
832	0.37109375	252.954530361351	-0.00028656005859375	0.37152099609375
833	0.36865234375	252.97893036129	-0.00029193115234375	0.369110107421875
834	0.3662109375	253.003330361228	-0.000290191650390625	0.366668701171875
835	0.36376953125	253.027730361166	-0.000289886474609375	0.364105224609375
836	0.361328125	253.052130361105	-0.0002918701171875	0.36175537109375
837	0.35888671875	253.076530361043	-0.000288299560546875	0.35931396484375
838	0.3564453125	253.100930360982	-0.000294647216796875	0.356964111328125
839	0.35400390625	253.12533036092	-0.000287384033203125	0.354461669921875
840	0.3515625	253.149730360858	-0.000293548583984375	0.351959228515625
841	0.34912109375	253.174130360797	-0.0002872314453125	0.349578857421875
842	0.3466796875	253.198530360735	-0.000292877197265625	0.347076416015625
843	0.34423828125	253.222930360674	-0.00029071044921875	0.34466552734375
844	0.341796875	253.247330360612	-0.000290924072265625	0.34222412109375
845	0.33935546875	253.27173036055	-0.000292510986328125	0.33978271484375
846	0.3369140625	253.296130360489	-0.000289794921875	0.337371826171875
847	0.33447265625	253.320530360427	-0.000296173095703125	0.33489990234375
848	0.33203125	253.344930360366	-0.0002894287109375	0.33245849609375
849	0.32958984375	253.369330360304	-0.000296112060546875	0.33001708984375
850	0.3271484375	253.393730360242	-0.000289581298828125	0.327606201171875
851	0.32470703125	253.418130360181	-0.0002962646484375	0.32513427734375
852	0.322265625	253.442530360119	-0.000293792724609375	0.32269287109375
853	0.31982421875	253.466930360058	-0.000294891357421875	0.32025146484375
854	0.3173828125	253.491330359996	-0.000296142578125	0.31787109375
855	0.31494140625	253.515730359934	-0.000294036865234375	0.31536865234375
856	0.3125	253.540130359873	-0.000300140380859375	0.31292724609375
857	0.31005859375	253.564530359811	-0.00029364013671875	0.31005859375
858	0.3076171875	253.588930359749	-0.0003004150390625	0.30767822265625
859	0.30517578125	253.613330359688	-0.000293701171875	0.30523681640625
860	0.302734375	253.637730359626	-0.00030059814453125	0.302764892578125
861	0.30029296875	253.662130359565	-0.00029766845703125	0.30035400390625
862	0.2978515625	253.686530359503	-0.000298980712890625	0.297882080078125
863	0.29541015625	253.710930359441	-0.00029962158203125	0.295501708984375
864	0.29296875	253.73533035938	-0.000297637939453125	0.29302978515625
865	0.29052734375	253.759730359318	-0.0003031005859375	0.2906494140625
866	0.2880859375	253.784130359257	-0.00029669189453125	0.288116455078125
867	0.28564453125	253.808530359195	-0.000302947998046875	0.28570556640625
868	0.283203125	253.832930359133	-0.000295745849609375	0.283294677734375
869	0.28076171875	253.857330359072	-0.00030242919921875	0.28082275390625
870	0.2783203125	253.88173035901	-0.00029852294921875	0.27838134765625
871	0.27587890625	253.906130358949	-0.000300262451171875	0.275909423828125
872	0.2734375	253.930530358887	-0.0003001708984375	0.27349853515625
873	0.27099609375	253.954930358825	-0.000298583984375	0.271026611328125
874	0.2685546875	253.979330358764	-0.00030352783203125	0.268585205078125
875	0.26611328125	254.003730358702	-0.00029730224609375	0.266204833984375
876	0.263671875	254.028130358641	-0.000303497314453125	0.263763427734375
877	0.26123046875	254.052530358579	-0.00029620361328125	0.261322021484375
878	0.2587890625	254.076930358517	-0.000303375244140625	0.25885009765625
879	0.25634765625	254.101330358456	-0.000299041748046875	0.256439208984375
880	0.25390625	254.125730358394	-0.000301483154296875	0.253997802734375
881	0.25146484375	254.150130358333	-0.000301177978515625	0.251556396484375
882	0.2490234375	254.174530358271	-0.000300384521484375	0.249114990234375
883	0.24658203125	254.198930358209	-0.00030511474609375	0.246612548828125
884	0.244140625	254.223330358148	-0.00029937744140625	0.24420166015625
885	0.24169921875	254.247730358086	-0.00030572509765625	0.241790771484375
886	0.2392578125	254.272130358025	-0.000298614501953125	0.23931884765625
887	0.23681640625	254.296530357963	-0.00030621337890625	0.236846923828125
888	0.234375	254.320930357901	-0.0003013916015625	0.234466552734375
889	0.23193359375	254.34533035784	-0.0003043212890625	0.231964111328125
890	0.2294921875	254.369730357778	-0.0003035888671875	0.22955322265625
891	0.22705078125	254.394130357717	-0.000303497314453125	0.22711181640625
892	0.224609375	254.418530357655	-0.000307769775390625	0.224700927734375
893	0.22216796875	254.442930357593	-0.000302520751953125	0.22222900390625
894	0.2197265625	254.467330357532	-0.000308685302734375	0.2198486328125
895	0.21728515625	254.49173035747	-0.00030145263671875	0.217376708984375
896	0.21484375	254.516130357409	-0.00030902099609375	0.21490478515625
897	0.21240234375	254.540530357347	-0.000303436279296875	0.21246337890625
898	0.2099609375	254.564930357285	-0.000306549072265625	0.210052490234375
899	0.20751953125	254.589330357224	-0.000304962158203125	0.2076416015625
900	0.205078125	254.613730357162	-0.00030499267578125	0.2052001953125
901	0.20263671875	254.638130357101	-0.000308319091796875	0.202728271484375
902	0.2001953125	254.662530357039	-0.00030316162109375	0.20025634765625
903	0.19775390625	254.686930356977	-0.000308685302734375	0.1978759765625
904	0.1953125	254.711330356916	-0.0003013916015625	0.195404052734375
905	0.19287109375	254.735730356854	-0.00030902099609375	0.19293212890625
906	0.1904296875	254.760130356793	-0.000302703857421875	0.190460205078125
907	0.18798828125	254.784530356731	-0.000306060791015625	0.18798828125
908	0.185546875	254.808930356669	-0.000303924560546875	0.1856689453125
909	0.18310546875	254.833330356608	-0.000304443359375	0.18316650390625
910	0.1806640625	254.857730356546	-0.000307373046875	0.180755615234375
911	0.17822265625	254.882130356484	-0.000302886962890625	0.178314208984375
912	0.17578125	254.906530356423	-0.00030841064453125	0.175872802734375
913	0.17333984375	254.930930356361	-0.000301513671875	0.1734619140625
914	0.1708984375	254.9553303563	-0.00030950927734375	0.17095947265625
915	0.16845703125	254.979730356238	-0.00030322265625	0.168609619140625
916	0.166015625	255.004130356176	-0.000307342529296875	0.16607666015625
917	0.16357421875	255.028530356115	-0.00030499267578125	0.163726806640625
918	0.1611328125	255.052930356053	-0.00030633544921875	0.1612548828125
919	0.15869140625	255.077330355992	-0.0003089599609375	0.158782958984375
920	0.15625	255.10173035593	-0.00030499267578125	0.15631103515625
921	0.15380859375	255.126130355868	-0.000310272216796875	0.1539306640625
922	0.1513671875	255.150530355807	-0.000303741455078125	0.151397705078125
923	0.14892578125	255.174930355745	-0.000311737060546875	0.14898681640625
924	0.146484375	255.199330355684	-0.0003050537109375	0.1466064453125
925	0.14404296875	255.223730355622	-0.00030950927734375	0.144134521484375
926	0.1416015625	255.24813035556	-0.000306488037109375	0.141693115234375
927	0.13916015625	255.272530355499	-0.0003082275390625	0.13922119140625
928	0.13671875	255.296930355437	-0.000310089111328125	0.13677978515625
929	0.13427734375	255.321330355376	-0.0003062744140625	0.134429931640625
930	0.1318359375	255.345730355314	-0.0003109130859375	0.1319580078125
931	0.12939453125	255.370130355252	-0.00030419921875	0.1295166015625
932	0.126953125	255.394530355191	-0.00031182861328125	0.127105712890625
933	0.12451171875	255.418930355129	-0.000304443359375	0.124664306640625
934	0.1220703125	255.443330355068	-0.0003089599609375	0.1221923828125
935	0.11962890625	255.467730355006	-0.00030517578125	0.119781494140625
936	0.1171875	255.492130354944	-0.00030718994140625	0.117340087890625
937	0.11474609375	255.516530354883	-0.00030828857421875	0.114837646484375
938	0.1123046875	255.540930354821	-0.0003048095703125	0.112396240234375
939	0.10986328125	255.56533035476	-0.000308990478515625	0.1099853515625
940	0.107421875	255.589730354698	-0.00030279541015625	0.1075439453125
941	0.10498046875	255.614130354636	-0.000310455322265625	0.1051025390625
942	0.1025390625	255.638530354575	-0.00030316162109375	0.102630615234375
943	0.10009765625	255.662930354513	-0.0003082275390625	0.1002197265625
944	0.09765625	255.687330354452	-0.00030438232421875	0.097747802734375
945	0.09521484375	255.71173035439	-0.000307464599609375	0.095367431640625
946	0.0927734375	255.736130354328	-0.000308624267578125	0.092864990234375
947	0.09033203125	255.760530354267	-0.00030609130859375	0.090484619140625
948	0.087890625	255.784930354205	-0.000310394287109375	0.087982177734375
949	0.08544921875	255.809330354144	-0.000304840087890625	0.0855712890625
950	0.0830078125	255.833730354082	-0.000312774658203125	0.0831298828125
951	0.08056640625	255.85813035402	-0.00030548095703125	0.08062744140625
952	0.078125	255.882530353959	-0.00031109619140625	0.078277587890625
953	0.07568359375	255.906930353897	-0.000306884765625	0.07574462890625
954	0.0732421875	255.931330353836	-0.00031048583984375	0.0733642578125
955	0.07080078125	255.955730353774	-0.00031109619140625	0.070892333984375
956	0.068359375	255.980130353712	-0.00030908203125	0.0684814453125
957	0.06591796875	256.004530353651	-0.000312957763671875	0.0660400390625
958	0.0634765625	256.028930353589	-0.000307647705078125	0.0635986328125
959	0.06103515625	256.053330353527	-0.0003154296875	0.06121826171875
960	0.05859375	256.077730353466	-0.00030780029296875	0.058685302734375
961	0.05615234375	256.102130353404	-0.000313385009765625	0.0562744140625
962	0.0537109375	256.126530353343	-0.00030841064453125	0.053802490234375
963	0.05126953125	256.150930353281	-0.00031207275390625	0.051361083984375
964	0.048828125	256.175330353219	-0.000311737060546875	0.0489776611328125
965	0.04638671875	256.199730353158	-0.00030987548828125	0.0465240478515625
966	0.0439453125	256.224130353096	-0.00031280517578125	0.0441192626953125
967	0.04150390625	256.248530353035	-0.0003076171875	0.0416595458984375
968	0.0390625	256.272930352973	-0.00031475830078125	0.0392242431640625
969	0.03662109375	256.297330352911	-0.00030694580078125	0.0367645263671875
970	0.0341796875	256.32173035285	-0.0003125	0.0343353271484375
971	0.03173828125	256.346130352788	-0.000306884765625	0.031903076171875
972	0.029296875	256.370530352727	-0.0003111572265625	0.0294647216796875
973	0.02685546875	256.394930352665	-0.000310333251953125	0.027020263671875
974	0.0244140625	256.419330352603	-0.0003089599609375	0.024554443359375
975	0.02197265625	256.443730352542	-0.00031170654296875	0.0221435546875
976	0.01953125	256.46813035248	-0.00030718994140625	0.01968994140625
977	0.01708984375	256.492530352419	-0.00031439208984375	0.017279052734375
978	0.0146484375	256.516930352357	-0.000306884765625	0.0147918701171875
979	0.01220703125	256.541330352295	-0.000313079833984375	0.01236572265625
980	0.009765625	256.565730352234	-0.00030743408203125	0.00992736816406251
981	0.00732421875	256.590130352172	-0.000312530517578125	0.00749816894531249
982	0.0048828125	256.614530352111	-0.0003116455078125	0.00505981445312501
983	0.00244140625	256.638930352049	-0.000311126708984375	0.0025787353515625
984	0	256.663330351987	-0.00031390380859375	0.000186157226562497
985	0.00244140625	256.687730351926	-0.000309783935546875	0.002593994140625
986	0.0048828125	256.712130351864	-0.000316864013671875	0.0050689697265625
987	0.00732421875	256.736530351803	-0.000309326171875	0.0075103759765625
988	0.009765625	256.760930351741	-0.000315582275390625	0.00991210937500001
989	0.01220703125	256.785330351679	-0.0003094482421875	0.012371826171875
990	0.0146484375	256.809730351618	-0.00031475830078125	0.0148193359375
991	0.01708984375	256.834130351556	-0.00031298828125	0.0172515869140625
992	0.01953125	256.858530351495	-0.0003125	0.019671630859375
993	0.02197265625	256.882930351433	-0.00031439208984375	0.02215576171875
