Index	Potential applied (V)	Time (s)	WE(1).Current (A)	WE(1).Potential (V)
1	0.00244140625	6.72194098302873	-0.0003214111328125	0.0026123046875
2	0.0048828125	6.74634098296713	-0.000315887451171875	0.0050506591796875
3	0.00732421875	6.77074098290552	-0.0003214111328125	0.0074951171875
4	0.009765625	6.79514098284392	-0.00031378173828125	0.009930419921875
5	0.01220703125	6.81954098278231	-0.000321258544921875	0.0123748779296875
6	0.0146484375	6.84394098272071	-0.000314971923828125	0.0147979736328125
7	0.01708984375	6.86834098265911	-0.000318115234375	0.0172576904296875
8	0.01953125	6.8927409825975	-0.00031597900390625	0.0196929931640625
9	0.02197265625	6.9171409825359	-0.000316192626953125	0.022161865234375
10	0.0244140625	6.94154098247429	-0.0003193359375	0.0245819091796875
11	0.02685546875	6.96594098241269	-0.00031402587890625	0.0270233154296875
12	0.029296875	6.99034098235109	-0.00031951904296875	0.0294677734375
13	0.03173828125	7.01474098228948	-0.000311981201171875	0.031890869140625
14	0.0341796875	7.03914098222788	-0.000319549560546875	0.034332275390625
15	0.03662109375	7.06354098216627	-0.00031317138671875	0.0367645263671875
16	0.0390625	7.08794098210467	-0.000316558837890625	0.0392242431640625
17	0.04150390625	7.11234098204307	-0.00031439208984375	0.041680908203125
18	0.0439453125	7.13674098198146	-0.000314697265625	0.0441253662109375
19	0.04638671875	7.16114098191986	-0.000317657470703125	0.0465606689453125
20	0.048828125	7.18554098185825	-0.0003126220703125	0.0489837646484375
21	0.05126953125	7.20994098179665	-0.000318145751953125	0.0513916015625
22	0.0537109375	7.23434098173504	-0.000310699462890625	0.053863525390625
23	0.05615234375	7.25874098167344	-0.000318359375	0.056304931640625
24	0.05859375	7.28314098161184	-0.000312164306640625	0.0587158203125
25	0.06103515625	7.30754098155023	-0.000315521240234375	0.0611572265625
26	0.0634765625	7.33194098148863	-0.000313446044921875	0.06353759765625
27	0.06591796875	7.35634098142702	-0.000313812255859375	0.0660400390625
28	0.068359375	7.38074098136542	-0.00031683349609375	0.06854248046875
29	0.07080078125	7.40514098130382	-0.0003116455078125	0.07086181640625
30	0.0732421875	7.42954098124221	-0.00031707763671875	0.073333740234375
31	0.07568359375	7.45394098118061	-0.000309661865234375	0.0758056640625
32	0.078125	7.478340981119	-0.000317291259765625	0.07818603515625
33	0.08056640625	7.5027409810574	-0.000310882568359375	0.080718994140625
34	0.0830078125	7.5271409809958	-0.000314239501953125	0.0831298828125
35	0.08544921875	7.55154098093419	-0.00031207275390625	0.0855712890625
36	0.087890625	7.57594098087259	-0.0003123779296875	0.0880126953125
37	0.09033203125	7.60034098081098	-0.000315338134765625	0.0904541015625
38	0.0927734375	7.62474098074938	-0.000310211181640625	0.09283447265625
39	0.09521484375	7.64914098068778	-0.000315673828125	0.095306396484375
40	0.09765625	7.67354098062617	-0.000308319091796875	0.0977783203125
41	0.10009765625	7.69794098056457	-0.00031585693359375	0.100189208984375
42	0.1025390625	7.72234098050296	-0.000309356689453125	0.1025390625
43	0.10498046875	7.74674098044136	-0.000312744140625	0.105072021484375
44	0.107421875	7.77114098037976	-0.000310394287109375	0.1075439453125
45	0.10986328125	7.79554098031815	-0.000310638427734375	0.110015869140625
46	0.1123046875	7.81994098025655	-0.000313385009765625	0.11236572265625
47	0.11474609375	7.84434098019494	-0.000308258056640625	0.11492919921875
48	0.1171875	7.86874098013334	-0.0003134765625	0.1173095703125
49	0.11962890625	7.89314098007173	-0.000305999755859375	0.119720458984375
50	0.1220703125	7.91754098001013	-0.0003134765625	0.122222900390625
51	0.12451171875	7.94194097994853	-0.00030694580078125	0.124603271484375
52	0.126953125	7.96634097988692	-0.000310394287109375	0.126983642578125
53	0.12939453125	7.99074097982532	-0.00030804443359375	0.1295166015625
54	0.1318359375	8.01514097976371	-0.000308502197265625	0.1319580078125
55	0.13427734375	8.03954097970211	-0.00031121826171875	0.134368896484375
56	0.13671875	8.06394097964051	-0.000306396484375	0.136810302734375
57	0.13916015625	8.0883409795789	-0.000311614990234375	0.1392822265625
58	0.1416015625	8.1127409795173	-0.000304290771484375	0.1417236328125
59	0.14404296875	8.13714097945569	-0.000311859130859375	0.1441650390625
60	0.146484375	8.16154097939409	-0.000305450439453125	0.146575927734375
61	0.14892578125	8.18594097933249	-0.0003089599609375	0.149017333984375
62	0.1513671875	8.21034097927088	-0.000306671142578125	0.151458740234375
63	0.15380859375	8.23474097920928	-0.000307281494140625	0.15386962890625
64	0.15625	8.25914097914767	-0.000309967041015625	0.1563720703125
65	0.15869140625	8.28354097908607	-0.000305084228515625	0.1588134765625
66	0.1611328125	8.30794097902447	-0.00031036376953125	0.161285400390625
67	0.16357421875	8.33234097896286	-0.00030303955078125	0.163665771484375
68	0.166015625	8.35674097890126	-0.000310638427734375	0.166107177734375
69	0.16845703125	8.38114097883965	-0.000304168701171875	0.168548583984375
70	0.1708984375	8.40554097877805	-0.000307464599609375	0.170989990234375
71	0.17333984375	8.42994097871644	-0.00030499267578125	0.1734619140625
72	0.17578125	8.45434097865484	-0.000305572509765625	0.175933837890625
73	0.17822265625	8.47874097859324	-0.000308258056640625	0.178314208984375
74	0.1806640625	8.50314097853163	-0.00030340576171875	0.1807861328125
75	0.18310546875	8.52754097847003	-0.00030859375	0.183197021484375
76	0.185546875	8.55194097840842	-0.0003013916015625	0.185638427734375
77	0.18798828125	8.57634097834682	-0.000308929443359375	0.1881103515625
78	0.1904296875	8.60074097828522	-0.000302337646484375	0.19049072265625
79	0.19287109375	8.62514097822361	-0.0003060302734375	0.19287109375
80	0.1953125	8.64954097816201	-0.000303436279296875	0.195343017578125
81	0.19775390625	8.6739409781004	-0.000304046630859375	0.19781494140625
82	0.2001953125	8.6983409780388	-0.00030657958984375	0.200286865234375
83	0.20263671875	8.7227409779772	-0.00030194091796875	0.202728271484375
84	0.205078125	8.74714097791559	-0.00030694580078125	0.20513916015625
85	0.20751953125	8.77154097785399	-0.000299591064453125	0.20758056640625
86	0.2099609375	8.79594097779238	-0.000307098388671875	0.2100830078125
87	0.21240234375	8.82034097773078	-0.000300445556640625	0.212432861328125
88	0.21484375	8.84474097766918	-0.000303955078125	0.21490478515625
89	0.21728515625	8.86914097760757	-0.000301513671875	0.217376708984375
90	0.2197265625	8.89354097754597	-0.000302001953125	0.21978759765625
91	0.22216796875	8.91794097748436	-0.0003045654296875	0.222198486328125
92	0.224609375	8.94234097742276	-0.000299835205078125	0.224700927734375
93	0.22705078125	8.96674097736116	-0.000304931640625	0.2271728515625
94	0.2294921875	8.99114097729955	-0.0002978515625	0.229583740234375
95	0.23193359375	9.01554097723795	-0.000305328369140625	0.23199462890625
96	0.234375	9.03994097717634	-0.00029876708984375	0.23443603515625
97	0.23681640625	9.06434097711474	-0.000302459716796875	0.23687744140625
98	0.2392578125	9.08874097705313	-0.00029986572265625	0.23931884765625
99	0.24169921875	9.11314097699153	-0.00030072021484375	0.2418212890625
100	0.244140625	9.13754097692993	-0.000303314208984375	0.24420166015625
101	0.24658203125	9.16194097686832	-0.000298858642578125	0.246673583984375
102	0.2490234375	9.18634097680672	-0.00030389404296875	0.24908447265625
103	0.25146484375	9.21074097674511	-0.000296630859375	0.25146484375
104	0.25390625	9.23514097668351	-0.0003040771484375	0.253936767578125
105	0.25634765625	9.25954097662191	-0.00029736328125	0.2564697265625
106	0.2587890625	9.2839409765603	-0.00030084228515625	0.25885009765625
107	0.26123046875	9.3083409764987	-0.000298004150390625	0.26129150390625
108	0.263671875	9.33274097643709	-0.000298583984375	0.263763427734375
109	0.26611328125	9.35714097637549	-0.00030078125	0.266143798828125
110	0.2685546875	9.38154097631389	-0.000295989990234375	0.268585205078125
111	0.27099609375	9.40594097625228	-0.0003006591796875	0.27105712890625
112	0.2734375	9.43034097619068	-0.00029339599609375	0.273468017578125
113	0.27587890625	9.45474097612907	-0.000300384521484375	0.275970458984375
114	0.2783203125	9.47914097606747	-0.0002935791015625	0.278411865234375
115	0.28076171875	9.50354097600587	-0.000297088623046875	0.2808837890625
116	0.283203125	9.52794097594426	-0.000294189453125	0.283233642578125
117	0.28564453125	9.55234097588266	-0.000294647216796875	0.285736083984375
118	0.2880859375	9.57674097582105	-0.000296905517578125	0.288116455078125
119	0.29052734375	9.60114097575945	-0.000292144775390625	0.29052734375
120	0.29296875	9.62554097569785	-0.00029693603515625	0.29302978515625
121	0.29541015625	9.64994097563624	-0.000289886474609375	0.295440673828125
122	0.2978515625	9.67434097557464	-0.000297149658203125	0.29791259765625
123	0.30029296875	9.69874097551303	-0.0002906494140625	0.30035400390625
124	0.302734375	9.72314097545143	-0.000294219970703125	0.30279541015625
125	0.30517578125	9.74754097538982	-0.000291656494140625	0.305206298828125
126	0.3076171875	9.77194097532822	-0.000292633056640625	0.30767822265625
127	0.31005859375	9.79634097526662	-0.000294921875	0.31011962890625
128	0.3125	9.82074097520501	-0.000290618896484375	0.312591552734375
129	0.31494140625	9.84514097514341	-0.000295654296875	0.314971923828125
130	0.3173828125	9.8695409750818	-0.000288818359375	0.31744384765625
131	0.31982421875	9.8939409750202	-0.000296417236328125	0.31988525390625
132	0.322265625	9.9183409749586	-0.000289825439453125	0.32232666015625
133	0.32470703125	9.94274097489699	-0.000293548583984375	0.324798583984375
134	0.3271484375	9.96714097483539	-0.0002908935546875	0.327239990234375
135	0.32958984375	9.99154097477378	-0.000292022705078125	0.329681396484375
136	0.33203125	10.0159409747122	-0.000294281005859375	0.332061767578125
137	0.33447265625	10.0403409746506	-0.0002899169921875	0.33453369140625
138	0.3369140625	10.064740974589	-0.0002947998046875	0.337005615234375
139	0.33935546875	10.0891409745274	-0.00028790283203125	0.33941650390625
140	0.341796875	10.1135409744658	-0.0002952880859375	0.341827392578125
141	0.34423828125	10.1379409744042	-0.0002884521484375	0.34429931640625
142	0.3466796875	10.1623409743426	-0.000292144775390625	0.346771240234375
143	0.34912109375	10.186740974281	-0.000289398193359375	0.34918212890625
144	0.3515625	10.2111409742193	-0.000290191650390625	0.3516845703125
145	0.35400390625	10.2355409741577	-0.000292388916015625	0.35406494140625
146	0.3564453125	10.2599409740961	-0.000287994384765625	0.356536865234375
147	0.35888671875	10.2843409740345	-0.000292724609375	0.3590087890625
148	0.361328125	10.3087409739729	-0.000285736083984375	0.36138916015625
149	0.36376953125	10.3331409739113	-0.00029290771484375	0.363800048828125
150	0.3662109375	10.3575409738497	-0.00028607177734375	0.366241455078125
151	0.36865234375	10.3819409737881	-0.000289794921875	0.36871337890625
152	0.37109375	10.4063409737265	-0.00028680419921875	0.37115478515625
153	0.37353515625	10.4307409736649	-0.000287811279296875	0.37359619140625
154	0.3759765625	10.4551409736033	-0.000289581298828125	0.37603759765625
155	0.37841796875	10.4795409735417	-0.000285186767578125	0.37847900390625
156	0.380859375	10.5039409734801	-0.0002900390625	0.380889892578125
157	0.38330078125	10.5283409734185	-0.000282867431640625	0.383331298828125
158	0.3857421875	10.5527409733569	-0.00029034423828125	0.3857421875
159	0.38818359375	10.5771409732953	-0.000283477783203125	0.38824462890625
160	0.390625	10.6015409732337	-0.0002872314453125	0.390655517578125
161	0.39306640625	10.6259409731721	-0.0002841796875	0.39306640625
162	0.3955078125	10.6503409731105	-0.000285125732421875	0.395538330078125
163	0.39794921875	10.6747409730489	-0.000286834716796875	0.397979736328125
164	0.400390625	10.6991409729873	-0.000282684326171875	0.400390625
165	0.40283203125	10.7235409729257	-0.000287322998046875	0.40289306640625
166	0.4052734375	10.7479409728641	-0.00028057861328125	0.40533447265625
167	0.40771484375	10.7723409728025	-0.00028778076171875	0.40777587890625
168	0.41015625	10.7967409727408	-0.000280975341796875	0.41021728515625
169	0.41259765625	10.8211409726792	-0.00028497314453125	0.41265869140625
170	0.4150390625	10.8455409726176	-0.0002816162109375	0.415069580078125
171	0.41748046875	10.869940972556	-0.00028271484375	0.417510986328125
172	0.419921875	10.8943409724944	-0.0002847900390625	0.41998291015625
173	0.42236328125	10.9187409724328	-0.0002806396484375	0.42242431640625
174	0.4248046875	10.9431409723712	-0.000285064697265625	0.424896240234375
175	0.42724609375	10.9675409723096	-0.000278167724609375	0.427276611328125
176	0.4296875	10.991940972248	-0.000285064697265625	0.429718017578125
177	0.43212890625	11.0163409721864	-0.00027813720703125	0.43218994140625
178	0.4345703125	11.0407409721248	-0.000282073974609375	0.43463134765625
179	0.43701171875	11.0651409720632	-0.000278472900390625	0.43707275390625
180	0.439453125	11.0895409720016	-0.000279937744140625	0.439453125
181	0.44189453125	11.11394097194	-0.000281280517578125	0.44195556640625
182	0.4443359375	11.1383409718784	-0.00027716064453125	0.444366455078125
183	0.44677734375	11.1627409718168	-0.0002813720703125	0.446807861328125
184	0.44921875	11.1871409717552	-0.000274658203125	0.449249267578125
185	0.45166015625	11.2115409716936	-0.0002818603515625	0.451751708984375
186	0.4541015625	11.235940971632	-0.000274505615234375	0.454132080078125
187	0.45654296875	11.2603409715704	-0.000278167724609375	0.456573486328125
188	0.458984375	11.2847409715088	-0.000274566650390625	0.458984375
189	0.46142578125	11.3091409714472	-0.000275909423828125	0.46148681640625
190	0.4638671875	11.3335409713856	-0.000277099609375	0.463897705078125
191	0.46630859375	11.357940971324	-0.0002733154296875	0.466339111328125
192	0.46875	11.3823409712624	-0.0002774658203125	0.468780517578125
193	0.47119140625	11.4067409712007	-0.000270660400390625	0.471221923828125
194	0.4736328125	11.4311409711391	-0.00027783203125	0.4736328125
195	0.47607421875	11.4555409710775	-0.000270355224609375	0.47613525390625
196	0.478515625	11.4799409710159	-0.000274261474609375	0.478546142578125
197	0.48095703125	11.5043409709543	-0.00027069091796875	0.480987548828125
198	0.4833984375	11.5287409708927	-0.000272369384765625	0.483428955078125
199	0.48583984375	11.5531409708311	-0.00027337646484375	0.48583984375
200	0.48828125	11.5775409707695	-0.000269561767578125	0.48828125
201	0.49072265625	11.6019409707079	-0.0002733154296875	0.49072265625
202	0.4931640625	11.6263409706463	-0.0002664794921875	0.493133544921875
203	0.49560546875	11.6507409705847	-0.00027337646484375	0.49566650390625
204	0.498046875	11.6751409705231	-0.000265411376953125	0.498046875
205	0.50048828125	11.6995409704615	-0.00026947021484375	0.50054931640625
206	0.5029296875	11.7239409703999	-0.000264984130859375	0.502899169921875
207	0.50537109375	11.7483409703383	-0.00026654052734375	0.505401611328125
208	0.5078125	11.7727409702767	-0.000266876220703125	0.50787353515625
209	0.51025390625	11.7971409702151	-0.000262237548828125	0.51025390625
210	0.5126953125	11.8215409701535	-0.000265838623046875	0.51275634765625
211	0.51513671875	11.8459409700919	-0.000258819580078125	0.51513671875
212	0.517578125	11.8703409700303	-0.000265228271484375	0.517578125
213	0.52001953125	11.8947409699687	-0.000257476806640625	0.52001953125
214	0.5224609375	11.9191409699071	-0.000261077880859375	0.5224609375
215	0.52490234375	11.9435409698455	-0.000256317138671875	0.524871826171875
216	0.52734375	11.9679409697839	-0.000257720947265625	0.527374267578125
217	0.52978515625	11.9923409697222	-0.000257720947265625	0.529815673828125
218	0.5322265625	12.0167409696606	-0.000253509521484375	0.5322265625
219	0.53466796875	12.041140969599	-0.0002568359375	0.534698486328125
220	0.537109375	12.0655409695374	-0.000249786376953125	0.537109375
221	0.53955078125	12.0899409694758	-0.00025628662109375	0.53955078125
222	0.5419921875	12.1143409694142	-0.000248291015625	0.54205322265625
223	0.54443359375	12.1387409693526	-0.000252105712890625	0.544464111328125
224	0.546875	12.163140969291	-0.00024761962890625	0.54693603515625
225	0.54931640625	12.1875409692294	-0.000249176025390625	0.54937744140625
226	0.5517578125	12.2119409691678	-0.000249359130859375	0.551788330078125
227	0.55419921875	12.2363409691062	-0.00024560546875	0.55419921875
228	0.556640625	12.2607409690446	-0.00024871826171875	0.556640625
229	0.55908203125	12.285140968983	-0.000241851806640625	0.55914306640625
230	0.5615234375	12.3095409689214	-0.00024810791015625	0.56158447265625
231	0.56396484375	12.3339409688598	-0.00023968505859375	0.56396484375
232	0.56640625	12.3583409687982	-0.00024365234375	0.56640625
233	0.56884765625	12.3827409687366	-0.000238555908203125	0.56878662109375
234	0.5712890625	12.407140968675	-0.000239959716796875	0.5712890625
235	0.57373046875	12.4315409686134	-0.000239410400390625	0.57366943359375
236	0.576171875	12.4559409685518	-0.000235107421875	0.576171875
237	0.57861328125	12.4803409684902	-0.000237213134765625	0.578521728515625
238	0.5810546875	12.5047409684286	-0.00023004150390625	0.5810546875
239	0.58349609375	12.529140968367	-0.0002354736328125	0.583526611328125
240	0.5859375	12.5535409683054	-0.0002265625	0.585845947265625
241	0.58837890625	12.5779409682438	-0.000229522705078125	0.58831787109375
242	0.5908203125	12.6023409681821	-0.000223602294921875	0.59075927734375
243	0.59326171875	12.6267409681205	-0.0002244873046875	0.59326171875
244	0.595703125	12.6511409680589	-0.00022283935546875	0.595703125
245	0.59814453125	12.6755409679973	-0.000218048095703125	0.59814453125
246	0.6005859375	12.6999409679357	-0.00021942138671875	0.6005859375
247	0.60302734375	12.7243409678741	-0.00021185302734375	0.602996826171875
248	0.60546875	12.7487409678125	-0.000217071533203125	0.605377197265625
249	0.60791015625	12.7731409677509	-0.000207916259765625	0.607879638671875
250	0.6103515625	12.7975409676893	-0.000210784912109375	0.6103515625
251	0.61279296875	12.8219409676277	-0.000204559326171875	0.61273193359375
252	0.615234375	12.8463409675661	-0.000205718994140625	0.61517333984375
253	0.61767578125	12.8707409675045	-0.000204071044921875	0.617645263671875
254	0.6201171875	12.8951409674429	-0.000199249267578125	0.62005615234375
255	0.62255859375	12.9195409673813	-0.00020025634765625	0.62249755859375
256	0.625	12.9439409673197	-0.000193328857421875	0.625
257	0.62744140625	12.9683409672581	-0.00019842529296875	0.62738037109375
258	0.6298828125	12.9927409671965	-0.00018896484375	0.629791259765625
259	0.63232421875	13.0171409671349	-0.00019183349609375	0.632232666015625
260	0.634765625	13.0415409670733	-0.00018499755859375	0.634674072265625
261	0.63720703125	13.0659409670117	-0.00018597412109375	0.63714599609375
262	0.6396484375	13.0903409669501	-0.00018365478515625	0.639617919921875
263	0.64208984375	13.1147409668885	-0.000178863525390625	0.6419677734375
264	0.64453125	13.1391409668269	-0.0001796875	0.644500732421875
265	0.64697265625	13.1635409667653	-0.000171905517578125	0.6468505859375
266	0.6494140625	13.1879409667036	-0.00017626953125	0.64935302734375
267	0.65185546875	13.212340966642	-0.0001661376953125	0.65179443359375
268	0.654296875	13.2367409665804	-0.00016864013671875	0.65423583984375
269	0.65673828125	13.2611409665188	-0.000160980224609375	0.656646728515625
270	0.6591796875	13.2855409664572	-0.0001614990234375	0.659088134765625
271	0.66162109375	13.3099409663956	-0.0001580810546875	0.661529541015625
272	0.6640625	13.334340966334	-0.000152496337890625	0.663970947265625
273	0.66650390625	13.3587409662724	-0.0001522216796875	0.66644287109375
274	0.6689453125	13.3831409662108	-0.000143402099609375	0.668853759765625
275	0.67138671875	13.4075409661492	-0.00014666748046875	0.671356201171875
276	0.673828125	13.4319409660876	-0.00013531494140625	0.6737060546875
277	0.67626953125	13.456340966026	-0.0001363525390625	0.6761474609375
278	0.6787109375	13.4807409659644	-0.00012713623046875	0.678619384765625
279	0.68115234375	13.5051409659028	-0.000126373291015625	0.681121826171875
280	0.68359375	13.5295409658412	-0.00012158203125	0.683441162109375
281	0.68603515625	13.5539409657796	-0.000115509033203125	0.6859130859375
282	0.6884765625	13.578340965718	-0.000113525390625	0.688323974609375
283	0.69091796875	13.6027409656564	-0.00010455322265625	0.6907958984375
284	0.693359375	13.6271409655948	-0.000105865478515625	0.693206787109375
285	0.69580078125	13.6515409655332	-9.4024658203125E-05	0.695648193359375
286	0.6982421875	13.6759409654716	-9.405517578125E-05	0.698089599609375
287	0.70068359375	13.70034096541	-8.416748046875E-05	0.7005615234375
288	0.703125	13.7247409653484	-8.28857421875E-05	0.702972412109375
289	0.70556640625	13.7491409652868	-7.708740234375E-05	0.70538330078125
290	0.7080078125	13.7735409652252	-7.0159912109375E-05	0.70794677734375
291	0.71044921875	13.7979409651635	-6.744384765625E-05	0.71038818359375
292	0.712890625	13.8223409651019	-5.743408203125E-05	0.712738037109375
293	0.71533203125	13.8467409650403	-5.7861328125E-05	0.7152099609375
294	0.7177734375	13.8711409649787	-4.51202392578125E-05	0.717620849609375
295	0.72021484375	13.8955409649171	-4.38323974609375E-05	0.7200927734375
296	0.72265625	13.9199409648555	-3.26690673828125E-05	0.7225341796875
297	0.72509765625	13.9443409647939	-3.0108642578125E-05	0.7249755859375
298	0.7275390625	13.9687409647323	-2.22564697265625E-05	0.727386474609375
299	0.72998046875	13.9931409646707	-1.49322509765625E-05	0.7298583984375
300	0.732421875	14.0175409646091	-9.8236083984375E-06	0.732269287109375
301	0.73486328125	14.0419409645475	1.171875E-06	0.734649658203125
302	0.7373046875	14.0663409644859	2.8533935546875E-06	0.73712158203125
303	0.73974609375	14.0907409644243	1.6778564453125E-05	0.73956298828125
304	0.7421875	14.1151409643627	2.0330810546875E-05	0.74188232421875
305	0.74462890625	14.1395409643011	3.34503173828125E-05	0.74444580078125
306	0.7470703125	14.1639409642395	3.84124755859375E-05	0.746826171875
307	0.74951171875	14.1883409641779	4.7882080078125E-05	0.749267578125
308	0.751953125	14.2127409641163	5.816650390625E-05	0.7513427734375
309	0.75439453125	14.2371409640547	6.5673828125E-05	0.7537841796875
310	0.7568359375	14.2615409639931	7.8765869140625E-05	0.75592041015625
311	0.75927734375	14.2859409639315	8.349609375E-05	0.75836181640625
312	0.76171875	14.3103409638699	9.930419921875E-05	0.7611083984375
313	0.76416015625	14.3347409638083	0.00010528564453125	0.7635498046875
314	0.7666015625	14.3591409637467	0.0001212158203125	0.7659912109375
315	0.76904296875	14.383540963685	0.00012835693359375	0.7684326171875
316	0.771484375	14.4079409636234	0.000140899658203125	0.7708740234375
317	0.77392578125	14.4323409635618	0.000153106689453125	0.772705078125
318	0.7763671875	14.4567409635002	0.0001636962890625	0.77606201171875
319	0.77880859375	14.4811409634386	0.000178558349609375	0.77789306640625
320	0.78125	14.505540963377	0.00018646240234375	0.7806396484375
321	0.78369140625	14.5299409633154	0.000204559326171875	0.78277587890625
322	0.7861328125	14.5543409632538	0.000213531494140625	0.78521728515625
323	0.78857421875	14.5787409631922	0.000231231689453125	0.7879638671875
324	0.791015625	14.6031409631306	0.00024139404296875	0.7904052734375
325	0.79345703125	14.627540963069	0.000257354736328125	0.792236328125
326	0.7958984375	14.6519409630074	0.000272308349609375	0.79559326171875
327	0.79833984375	14.6763409629458	0.00028668212890625	0.797119140625
328	0.80078125	14.7007409628842	0.000303985595703125	0.799560546875
329	0.80322265625	14.7251409628226	0.000316253662109375	0.80230712890625
330	0.8056640625	14.749540962761	0.0003369140625	0.80474853515625
331	0.80810546875	14.7739409626994	0.000350067138671875	0.80718994140625
332	0.810546875	14.7983409626378	0.000370880126953125	0.80963134765625
333	0.81298828125	14.8227409625762	0.000385650634765625	0.81207275390625
334	0.8154296875	14.8471409625146	0.0004049072265625	0.8148193359375
335	0.81787109375	14.871540962453	0.0004234619140625	0.816650390625
336	0.8203125	14.8959409623914	0.0004422607421875	0.8197021484375
337	0.82275390625	14.9203409623298	0.00046337890625	0.82122802734375
338	0.8251953125	14.9447409622682	0.000481048583984375	0.823974609375
339	0.82763671875	14.9691409622066	0.00050537109375	0.82672119140625
340	0.830078125	14.9935409621449	0.000523681640625	0.82977294921875
341	0.83251953125	15.0179409620833	0.0005487060546875	0.83221435546875
342	0.8349609375	15.0423409620217	0.00056854248046875	0.83404541015625
343	0.83740234375	15.0667409619601	0.00059234619140625	0.83648681640625
344	0.83984375	15.0911409618985	0.00061553955078125	0.8392333984375
345	0.84228515625	15.1155409618369	0.00063934326171875	0.8416748046875
346	0.8447265625	15.1399409617753	0.00066436767578125	0.8441162109375
347	0.84716796875	15.1643409617137	0.00068756103515625	0.845947265625
348	0.849609375	15.1887409616521	0.00071533203125	0.8489990234375
349	0.85205078125	15.2131409615905	0.00073944091796875	0.85113525390625
350	0.8544921875	15.2375409615289	0.0007684326171875	0.8538818359375
351	0.85693359375	15.2619409614673	0.00079345703125	0.85662841796875
352	0.859375	15.2863409614057	0.0008221435546875	0.8587646484375
353	0.86181640625	15.3107409613441	0.0008502197265625	0.86090087890625
354	0.8642578125	15.3351409612825	0.0008795166015625	0.86334228515625
355	0.86669921875	15.3595409612209	0.00090911865234375	0.8660888671875
356	0.869140625	15.3839409611593	0.000938720703125	0.8685302734375
357	0.87158203125	15.4083409610977	0.000970458984375	0.8709716796875
358	0.8740234375	15.4327409610361	0.0010009765625	0.87310791015625
359	0.87646484375	15.4571409609745	0.00103424072265625	0.87554931640625
360	0.87890625	15.4815409609129	0.001065673828125	0.87799072265625
361	0.88134765625	15.5059409608513	0.00110015869140625	0.88043212890625
362	0.8837890625	15.5303409607897	0.0011334228515625	0.8831787109375
363	0.88623046875	15.5547409607281	0.001168212890625	0.8856201171875
364	0.888671875	15.5791409606665	0.00120361328125	0.88775634765625
365	0.89111328125	15.6035409606048	0.0012396240234375	0.89019775390625
366	0.8935546875	15.6279409605432	0.0012762451171875	0.89263916015625
367	0.89599609375	15.6523409604816	0.0013134765625	0.89508056640625
368	0.8984375	15.67674096042	0.00135162353515625	0.89752197265625
369	0.90087890625	15.7011409603584	0.0013897705078125	0.89935302734375
370	0.9033203125	15.7255409602968	0.001429443359375	0.9027099609375
371	0.90576171875	15.7499409602352	0.001468505859375	0.90423583984375
372	0.908203125	15.7743409601736	0.00150970458984375	0.90728759765625
373	0.91064453125	15.798740960112	0.00154998779296875	0.90972900390625
374	0.9130859375	15.8231409600504	0.00159332275390625	0.91217041015625
375	0.91552734375	15.8475409599888	0.00163421630859375	0.914306640625
376	0.91796875	15.8719409599272	0.00167877197265625	0.9173583984375
377	0.92041015625	15.8963409598656	0.0017218017578125	0.919189453125
378	0.9228515625	15.920740959804	0.00176727294921875	0.921630859375
379	0.92529296875	15.9451409597424	0.0018121337890625	0.9246826171875
380	0.927734375	15.9695409596808	0.0018572998046875	0.92681884765625
381	0.93017578125	15.9939409596192	0.00190460205078125	0.9295654296875
382	0.9326171875	16.0183409595576	0.00195068359375	0.931396484375
383	0.93505859375	16.042740959496	0.002000732421875	0.9344482421875
384	0.9375	16.0671409594344	0.002047119140625	0.93658447265625
385	0.93994140625	16.0915409593728	0.002098388671875	0.93902587890625
386	0.9423828125	16.1159409593112	0.00214691162109375	0.941162109375
387	0.94482421875	16.1403409592496	0.00219879150390625	0.94390869140625
388	0.947265625	16.164740959188	0.002249755859375	0.9466552734375
389	0.94970703125	16.1891409591263	0.00230133056640625	0.94940185546875
390	0.9521484375	16.2135409590647	0.0023553466796875	0.95123291015625
391	0.95458984375	16.2379409590031	0.00240692138671875	0.95367431640625
392	0.95703125	16.2623409589415	0.00246368408203125	0.95611572265625
393	0.95947265625	16.2867409588799	0.0025152587890625	0.95855712890625
394	0.9619140625	16.3111409588183	0.00257354736328125	0.96099853515625
395	0.96435546875	16.3355409587567	0.00262725830078125	0.963134765625
396	0.966796875	16.3599409586951	0.00268585205078125	0.965576171875
397	0.96923828125	16.3843409586335	0.00274200439453125	0.96832275390625
398	0.9716796875	16.4087409585719	0.0027996826171875	0.97015380859375
399	0.97412109375	16.4331409585103	0.0028594970703125	0.9735107421875
400	0.9765625	16.4575409584487	0.0029168701171875	0.97564697265625
401	0.97900390625	16.4819409583871	0.0029803466796875	0.9771728515625
402	0.9814453125	16.5063409583255	0.00303680419921875	0.98052978515625
403	0.98388671875	16.5307409582639	0.003101806640625	0.98297119140625
404	0.986328125	16.5551409582023	0.00315948486328125	0.985107421875
405	0.98876953125	16.5795409581407	0.0032244873046875	0.987548828125
406	0.9912109375	16.6039409580791	0.0032855224609375	0.99090576171875
407	0.99365234375	16.6283409580175	0.00334808349609375	0.992431640625
408	0.99609375	16.6527409579559	0.0034130859375	0.9954833984375
409	0.99853515625	16.6771409578943	0.0034747314453125	0.99761962890625
410	1.0009765625	16.7015409578327	0.0035418701171875	1.0003662109375
411	1.00341796875	16.7259409577711	0.0036016845703125	1.0028076171875
412	1.005859375	16.7503409577095	0.00366851806640625	1.004638671875
413	1.00830078125	16.7747409576479	0.00372894287109375	1.00799560546875
414	1.0107421875	16.7991409575862	0.00379486083984375	1.00921630859375
415	1.01318359375	16.8235409575246	0.0038555908203125	1.011962890625
416	1.015625	16.847940957463	0.00391754150390625	1.014404296875
417	1.01806640625	16.8723409574014	0.00397979736328125	1.016845703125
418	1.0205078125	16.8967409573398	0.0040374755859375	1.01959228515625
419	1.02294921875	16.9211409572782	0.00409881591796875	1.0223388671875
420	1.025390625	16.9455409572166	0.0041510009765625	1.0247802734375
421	1.02783203125	16.969940957155	0.00420867919921875	1.02691650390625
422	1.0302734375	16.9943409570934	0.00425872802734375	1.0284423828125
423	1.03271484375	17.0187409570318	0.0043121337890625	1.0321044921875
424	1.03515625	17.0431409569702	0.0043597412109375	1.03485107421875
425	1.03759765625	17.0675409569086	0.00440704345703125	1.036376953125
426	1.0400390625	17.091940956847	0.00445281982421875	1.038818359375
427	1.04248046875	17.1163409567854	0.00449493408203125	1.041259765625
428	1.044921875	17.1407409567238	0.00453826904296875	1.04400634765625
429	1.04736328125	17.1651409566622	0.00457550048828125	1.04644775390625
430	1.0498046875	17.1895409566006	0.0046160888671875	1.04888916015625
431	1.05224609375	17.213940956539	0.00465087890625	1.0516357421875
432	1.0546875	17.2383409564774	0.0046881103515625	1.05377197265625
433	1.05712890625	17.2627409564158	0.0047210693359375	1.05621337890625
434	1.0595703125	17.2871409563542	0.00475433349609375	1.0589599609375
435	1.06201171875	17.3115409562926	0.004786376953125	1.0614013671875
436	1.064453125	17.335940956231	0.00481597900390625	1.06353759765625
437	1.06689453125	17.3603409561694	0.0048468017578125	1.06597900390625
438	1.0693359375	17.3847409561077	0.0048736572265625	1.06842041015625
439	1.07177734375	17.4091409560461	0.00490264892578125	1.0711669921875
440	1.07421875	17.4335409559845	0.004927978515625	1.07391357421875
441	1.07666015625	17.4579409559229	0.00495513916015625	1.07574462890625
442	1.0791015625	17.4823409558613	0.00497955322265625	1.077880859375
443	1.08154296875	17.5067409557997	0.0050042724609375	1.08001708984375
444	1.083984375	17.5311409557381	0.00502838134765625	1.08306884765625
445	1.08642578125	17.5555409556765	0.00505126953125	1.08612060546875
446	1.0888671875	17.5799409556149	0.00507476806640625	1.0882568359375
447	1.09130859375	17.6043409555533	0.00509552001953125	1.0906982421875
448	1.09375	17.6287409554917	0.00511810302734375	1.092529296875
449	1.09619140625	17.6531409554301	0.00513824462890625	1.094970703125
450	1.0986328125	17.6775409553685	0.00515960693359375	1.097412109375
451	1.10107421875	17.7019409553069	0.00517913818359375	1.1004638671875
452	1.103515625	17.7263409552453	0.005198974609375	1.10260009765625
453	1.10595703125	17.7507409551837	0.005218505859375	1.10443115234375
454	1.1083984375	17.7751409551221	0.00523712158203125	1.107177734375
455	1.11083984375	17.7995409550605	0.00525604248046875	1.109619140625
456	1.11328125	17.8239409549989	0.0052734375	1.112060546875
457	1.11572265625	17.8483409549373	0.0052923583984375	1.114501953125
458	1.1181640625	17.8727409548757	0.005308837890625	1.1175537109375
459	1.12060546875	17.8971409548141	0.00532684326171875	1.11907958984375
460	1.123046875	17.9215409547525	0.00534332275390625	1.121826171875
461	1.12548828125	17.9459409546909	0.00535980224609375	1.124267578125
462	1.1279296875	17.9703409546293	0.00537628173828125	1.12701416015625
463	1.13037109375	17.9947409545676	0.00539215087890625	1.12945556640625
464	1.1328125	18.019140954506	0.0054083251953125	1.131591796875
465	1.13525390625	18.0435409544444	0.00542327880859375	1.13372802734375
466	1.1376953125	18.0679409543828	0.005439453125	1.1370849609375
467	1.14013671875	18.0923409543212	0.00545379638671875	1.138916015625
468	1.142578125	18.1167409542596	0.00546905517578125	1.1419677734375
469	1.14501953125	18.141140954198	0.0054833984375	1.14410400390625
470	1.1474609375	18.1655409541364	0.005498046875	1.1468505859375
471	1.14990234375	18.1899409540748	0.00551239013671875	1.14898681640625
472	1.15234375	18.2143409540132	0.005526123046875	1.151123046875
473	1.15478515625	18.2387409539516	0.0055401611328125	1.153564453125
474	1.1572265625	18.26314095389	0.0055535888671875	1.15631103515625
475	1.15966796875	18.2875409538284	0.005567626953125	1.158447265625
476	1.162109375	18.3119409537668	0.00558013916015625	1.16119384765625
477	1.16455078125	18.3363409537052	0.0055938720703125	1.163330078125
478	1.1669921875	18.3607409536436	0.005606689453125	1.16607666015625
479	1.16943359375	18.385140953582	0.00561981201171875	1.168212890625
480	1.171875	18.4095409535204	0.00563232421875	1.170654296875
481	1.17431640625	18.4339409534588	0.00564483642578125	1.17340087890625
482	1.1767578125	18.4583409533972	0.00565765380859375	1.175537109375
483	1.17919921875	18.4827409533356	0.0056695556640625	1.177978515625
484	1.181640625	18.507140953274	0.00568206787109375	1.180419921875
485	1.18408203125	18.5315409532124	0.00569366455078125	1.18255615234375
486	1.1865234375	18.5559409531508	0.00570587158203125	1.185302734375
487	1.18896484375	18.5803409530891	0.00571746826171875	1.18804931640625
488	1.19140625	18.6047409530275	0.00572906494140625	1.1895751953125
489	1.19384765625	18.6291409529659	0.00574066162109375	1.19293212890625
490	1.1962890625	18.6535409529043	0.005751953125	1.19537353515625
491	1.19873046875	18.6779409528427	0.0057635498046875	1.197509765625
492	1.201171875	18.7023409527811	0.00577423095703125	1.20025634765625
493	1.19873046875	18.7267409527195	0.0057598876953125	1.197509765625
494	1.1962890625	18.7511409526579	0.00574432373046875	1.19537353515625
495	1.19384765625	18.7755409525963	0.0057293701171875	1.19232177734375
496	1.19140625	18.7999409525347	0.0057135009765625	1.1895751953125
497	1.18896484375	18.8243409524731	0.00569793701171875	1.187744140625
498	1.1865234375	18.8487409524115	0.00568206787109375	1.18560791015625
499	1.18408203125	18.8731409523499	0.00566619873046875	1.182861328125
500	1.181640625	18.8975409522883	0.0056500244140625	1.180419921875
501	1.17919921875	18.9219409522267	0.0056329345703125	1.177978515625
502	1.1767578125	18.9463409521651	0.00561676025390625	1.17584228515625
503	1.17431640625	18.9707409521035	0.005599365234375	1.17340087890625
504	1.171875	18.9951409520419	0.00558258056640625	1.17095947265625
505	1.16943359375	19.0195409519803	0.0055645751953125	1.168212890625
506	1.1669921875	19.0439409519187	0.005546875	1.165771484375
507	1.16455078125	19.0683409518571	0.00552886962890625	1.163330078125
508	1.162109375	19.0927409517955	0.00551055908203125	1.160888671875
509	1.15966796875	19.1171409517339	0.005491943359375	1.158447265625
510	1.1572265625	19.1415409516723	0.005472412109375	1.156005859375
511	1.15478515625	19.1659409516107	0.0054534912109375	1.153564453125
512	1.15234375	19.190340951549	0.00543304443359375	1.151123046875
513	1.14990234375	19.2147409514874	0.00541351318359375	1.148681640625
514	1.1474609375	19.2391409514258	0.0053924560546875	1.1468505859375
515	1.14501953125	19.2635409513642	0.0053717041015625	1.143798828125
516	1.142578125	19.2879409513026	0.00535003662109375	1.14166259765625
517	1.14013671875	19.312340951241	0.00532806396484375	1.138916015625
518	1.1376953125	19.3367409511794	0.0053057861328125	1.1370849609375
519	1.13525390625	19.3611409511178	0.00528228759765625	1.134033203125
520	1.1328125	19.3855409510562	0.0052593994140625	1.13128662109375
521	1.13037109375	19.4099409509946	0.00523468017578125	1.12884521484375
522	1.1279296875	19.434340950933	0.0052105712890625	1.12701416015625
523	1.12548828125	19.4587409508714	0.005184326171875	1.12457275390625
524	1.123046875	19.4831409508098	0.00515869140625	1.121826171875
525	1.12060546875	19.5075409507482	0.0051318359375	1.119384765625
526	1.1181640625	19.5319409506866	0.00510406494140625	1.116943359375
527	1.11572265625	19.556340950625	0.00507598876953125	1.11419677734375
528	1.11328125	19.5807409505634	0.0050457763671875	1.112060546875
529	1.11083984375	19.6051409505018	0.00501617431640625	1.1090087890625
530	1.1083984375	19.6295409504402	0.00498382568359375	1.107177734375
531	1.10595703125	19.6539409503786	0.00495208740234375	1.104736328125
532	1.103515625	19.678340950317	0.0049169921875	1.102294921875
533	1.10107421875	19.7027409502554	0.00488250732421875	1.09954833984375
534	1.0986328125	19.7271409501938	0.0048455810546875	1.097412109375
535	1.09619140625	19.7515409501322	0.00480743408203125	1.09527587890625
536	1.09375	19.7759409500705	0.0047674560546875	1.09283447265625
537	1.09130859375	19.8003409500089	0.00472503662109375	1.09039306640625
538	1.0888671875	19.8247409499473	0.00468231201171875	1.0882568359375
539	1.08642578125	19.8491409498857	0.00463470458984375	1.08612060546875
540	1.083984375	19.8735409498241	0.00458770751953125	1.08306884765625
541	1.08154296875	19.8979409497625	0.0045355224609375	1.080322265625
542	1.0791015625	19.9223409497009	0.0044830322265625	1.07879638671875
543	1.07666015625	19.9467409496393	0.00442596435546875	1.07574462890625
544	1.07421875	19.9711409495777	0.00436676025390625	1.07330322265625
545	1.07177734375	19.9955409495161	0.00430450439453125	1.0711669921875
546	1.0693359375	20.0199409494545	0.00423797607421875	1.068115234375
547	1.06689453125	20.0443409493929	0.00417144775390625	1.065673828125
548	1.064453125	20.0687409493313	0.0040985107421875	1.0638427734375
549	1.06201171875	20.0931409492697	0.004027099609375	1.06109619140625
550	1.0595703125	20.1175409492081	0.00394927978515625	1.0589599609375
551	1.05712890625	20.1419409491465	0.00387298583984375	1.05621337890625
552	1.0546875	20.1663409490849	0.0037939453125	1.053466796875
553	1.05224609375	20.1907409490233	0.00371490478515625	1.05072021484375
554	1.0498046875	20.2151409489617	0.0036358642578125	1.04888916015625
555	1.04736328125	20.2395409489001	0.0035546875	1.0467529296875
556	1.044921875	20.2639409488385	0.00347686767578125	1.043701171875
557	1.04248046875	20.2883409487769	0.0033966064453125	1.041259765625
558	1.0400390625	20.3127409487153	0.00332061767578125	1.0394287109375
559	1.03759765625	20.3371409486537	0.00324127197265625	1.036376953125
560	1.03515625	20.3615409485921	0.0031658935546875	1.03424072265625
561	1.03271484375	20.3859409485304	0.00309051513671875	1.031494140625
562	1.0302734375	20.4103409484688	0.0030157470703125	1.029052734375
563	1.02783203125	20.4347409484072	0.002943115234375	1.026611328125
564	1.025390625	20.4591409483456	0.002869873046875	1.02447509765625
565	1.02294921875	20.483540948284	0.0028009033203125	1.02203369140625
566	1.0205078125	20.5079409482224	0.00272979736328125	1.019287109375
567	1.01806640625	20.5323409481608	0.002662353515625	1.016845703125
568	1.015625	20.5567409480992	0.002593994140625	1.01470947265625
569	1.01318359375	20.5811409480376	0.00252838134765625	1.011962890625
570	1.0107421875	20.605540947976	0.0024639892578125	1.009521484375
571	1.00830078125	20.6299409479144	0.00240020751953125	1.007080078125
572	1.005859375	20.6543409478528	0.0023382568359375	1.00494384765625
573	1.00341796875	20.6787409477912	0.002276611328125	1.002197265625
574	1.0009765625	20.7031409477296	0.002218017578125	1.00006103515625
575	0.99853515625	20.727540947668	0.0021588134765625	0.99761962890625
576	0.99609375	20.7519409476064	0.00210174560546875	0.99578857421875
577	0.99365234375	20.7763409475448	0.0020452880859375	0.99273681640625
578	0.9912109375	20.8007409474832	0.0019903564453125	0.99090576171875
579	0.98876953125	20.8251409474216	0.001937255859375	0.987548828125
580	0.986328125	20.84954094736	0.0018841552734375	0.9857177734375
581	0.98388671875	20.8739409472984	0.00183319091796875	0.982666015625
582	0.9814453125	20.8983409472368	0.0017828369140625	0.98052978515625
583	0.97900390625	20.9227409471752	0.0017340087890625	0.977783203125
584	0.9765625	20.9471409471136	0.0016864013671875	0.97564697265625
585	0.97412109375	20.9715409470519	0.0016387939453125	0.972900390625
586	0.9716796875	20.9959409469903	0.0015936279296875	0.97076416015625
587	0.96923828125	21.0203409469287	0.00154815673828125	0.96923828125
588	0.966796875	21.0447409468671	0.0015057373046875	0.96649169921875
589	0.96435546875	21.0691409468055	0.00146240234375	0.9637451171875
590	0.9619140625	21.0935409467439	0.00142120361328125	0.9613037109375
591	0.95947265625	21.1179409466823	0.001380615234375	0.9588623046875
592	0.95703125	21.1423409466207	0.0013409423828125	0.955810546875
593	0.95458984375	21.1667409465591	0.00130340576171875	0.953369140625
594	0.9521484375	21.1911409464975	0.00126434326171875	0.950927734375
595	0.94970703125	21.2155409464359	0.001229248046875	0.94879150390625
596	0.947265625	21.2399409463743	0.00119232177734375	0.9466552734375
597	0.94482421875	21.2643409463127	0.00115936279296875	0.94390869140625
598	0.9423828125	21.2887409462511	0.00112396240234375	0.9417724609375
599	0.93994140625	21.3131409461895	0.00109130859375	0.9393310546875
600	0.9375	21.3375409461279	0.0010595703125	0.93597412109375
601	0.93505859375	21.3619409460663	0.0010272216796875	0.933837890625
602	0.9326171875	21.3863409460047	0.00099853515625	0.93170166015625
603	0.93017578125	21.4107409459431	0.00096649169921875	0.9295654296875
604	0.927734375	21.4351409458815	0.00094024658203125	0.92681884765625
605	0.92529296875	21.4595409458199	0.00090972900390625	0.92437744140625
606	0.9228515625	21.4839409457583	0.000885009765625	0.92193603515625
607	0.92041015625	21.5083409456967	0.0008563232421875	0.9197998046875
608	0.91796875	21.5327409456351	0.00083099365234375	0.9173583984375
609	0.91552734375	21.5571409455735	0.00080596923828125	0.91461181640625
610	0.9130859375	21.5815409455118	0.0007806396484375	0.91217041015625
611	0.91064453125	21.6059409454502	0.0007586669921875	0.90972900390625
612	0.908203125	21.6303409453886	0.0007318115234375	0.9075927734375
613	0.90576171875	21.654740945327	0.00071319580078125	0.904541015625
614	0.9033203125	21.6791409452654	0.0006878662109375	0.90240478515625
615	0.90087890625	21.7035409452038	0.0006695556640625	0.89996337890625
616	0.8984375	21.7279409451422	0.00064544677734375	0.89752197265625
617	0.89599609375	21.7523409450806	0.00062591552734375	0.894775390625
618	0.8935546875	21.776740945019	0.0006060791015625	0.89263916015625
619	0.89111328125	21.8011409449574	0.00058563232421875	0.89019775390625
620	0.888671875	21.8255409448958	0.00056884765625	0.887451171875
621	0.88623046875	21.8499409448342	0.0005462646484375	0.8856201171875
622	0.8837890625	21.8743409447726	0.0005328369140625	0.882568359375
623	0.88134765625	21.898740944711	0.00051116943359375	0.88043212890625
624	0.87890625	21.9231409446494	0.000498046875	0.877685546875
625	0.87646484375	21.9475409445878	0.0004783935546875	0.87554931640625
626	0.8740234375	21.9719409445262	0.000463043212890625	0.87310791015625
627	0.87158203125	21.9963409444646	0.000447509765625	0.870361328125
628	0.869140625	22.020740944403	0.00043096923828125	0.867919921875
629	0.86669921875	22.0451409443414	0.0004188232421875	0.8660888671875
630	0.8642578125	22.0695409442798	0.000399658203125	0.86334228515625
631	0.86181640625	22.0939409442182	0.000390380859375	0.86090087890625
632	0.859375	22.1183409441566	0.000371917724609375	0.8587646484375
633	0.85693359375	22.142740944095	0.000363311767578125	0.85662841796875
634	0.8544921875	22.1671409440333	0.000345947265625	0.85357666015625
635	0.85205078125	22.1915409439717	0.000334564208984375	0.85113525390625
636	0.849609375	22.2159409439101	0.00032208251953125	0.84869384765625
637	0.84716796875	22.2403409438485	0.0003087158203125	0.8465576171875
638	0.8447265625	22.2647409437869	0.000298919677734375	0.84381103515625
639	0.84228515625	22.2891409437253	0.000282623291015625	0.841064453125
640	0.83984375	22.3135409436637	0.00027642822265625	0.83892822265625
641	0.83740234375	22.3379409436021	0.000260223388671875	0.83648681640625
642	0.8349609375	22.3623409435405	0.00025433349609375	0.83404541015625
643	0.83251953125	22.3867409434789	0.00023919677734375	0.83160400390625
644	0.830078125	22.4111409434173	0.0002305908203125	0.82916259765625
645	0.82763671875	22.4355409433557	0.0002197265625	0.82672119140625
646	0.8251953125	22.4599409432941	0.0002088623046875	0.823974609375
647	0.82275390625	22.4843409432325	0.000201141357421875	0.821533203125
648	0.8203125	22.5087409431709	0.000186676025390625	0.81939697265625
649	0.81787109375	22.5331409431093	0.0001826171875	0.81695556640625
650	0.8154296875	22.5575409430477	0.0001680908203125	0.8148193359375
651	0.81298828125	22.5819409429861	0.000164581298828125	0.81207275390625
652	0.810546875	22.6063409429245	0.000150360107421875	0.81024169921875
653	0.80810546875	22.6307409428629	0.00014434814453125	0.806884765625
654	0.8056640625	22.6551409428013	0.000135223388671875	0.804443359375
655	0.80322265625	22.6795409427397	0.000125946044921875	0.802001953125
656	0.80078125	22.7039409426781	0.000119873046875	0.8001708984375
657	0.79833984375	22.7283409426165	0.00010662841796875	0.79742431640625
658	0.7958984375	22.7527409425549	0.000104339599609375	0.7952880859375
659	0.79345703125	22.7771409424932	9.1278076171875E-05	0.792236328125
660	0.791015625	22.8015409424316	8.966064453125E-05	0.7904052734375
661	0.78857421875	22.82594094237	7.65380859375E-05	0.78765869140625
662	0.7861328125	22.8503409423084	7.2021484375E-05	0.7861328125
663	0.78369140625	22.8747409422468	6.390380859375E-05	0.7830810546875
664	0.78125	22.8991409421852	5.67626953125E-05	0.780029296875
665	0.77880859375	22.9235409421236	5.13916015625E-05	0.77789306640625
666	0.7763671875	22.947940942062	4.0185546875E-05	0.77545166015625
667	0.77392578125	22.9723409420004	3.92974853515625E-05	0.77301025390625
668	0.771484375	22.9967409419388	2.80975341796875E-05	0.770263671875
669	0.76904296875	23.0211409418772	2.79937744140625E-05	0.7684326171875
670	0.7666015625	23.0455409418156	1.5496826171875E-05	0.76568603515625
671	0.76416015625	23.069940941754	1.2847900390625E-05	0.76324462890625
672	0.76171875	23.0943409416924	5.17578125E-06	0.76141357421875
673	0.75927734375	23.1187409416308	-5.279541015625E-07	0.75836181640625
674	0.7568359375	23.1431409415692	-4.7821044921875E-06	0.75592041015625
675	0.75439453125	23.1675409415076	-1.51580810546875E-05	0.75408935546875
676	0.751953125	23.191940941446	-1.52435302734375E-05	0.7513427734375
677	0.74951171875	23.2163409413844	-2.6019287109375E-05	0.7493896484375
678	0.7470703125	23.2407409413228	-2.49176025390625E-05	0.746917724609375
679	0.74462890625	23.2651409412612	-3.66790771484375E-05	0.744476318359375
680	0.7421875	23.2895409411996	-3.792724609375E-05	0.742156982421875
681	0.73974609375	23.313940941138	-4.5074462890625E-05	0.7396240234375
682	0.7373046875	23.3383409410764	-4.99267578125E-05	0.737152099609375
683	0.73486328125	23.3627409410147	-5.4168701171875E-05	0.734771728515625
684	0.732421875	23.3871409409531	-6.3446044921875E-05	0.732330322265625
685	0.72998046875	23.4115409408915	-6.280517578125E-05	0.729827880859375
686	0.7275390625	23.4359409408299	-7.3486328125E-05	0.7274169921875
687	0.72509765625	23.4603409407683	-7.14111328125E-05	0.72503662109375
688	0.72265625	23.4847409407067	-8.306884765625E-05	0.7225341796875
689	0.72021484375	23.5091409406451	-8.31298828125E-05	0.720123291015625
690	0.7177734375	23.5335409405835	-8.9691162109375E-05	0.717681884765625
691	0.71533203125	23.5579409405219	-9.344482421875E-05	0.715240478515625
692	0.712890625	23.5823409404603	-9.716796875E-05	0.712799072265625
693	0.71044921875	23.6067409403987	-0.0001053466796875	0.710418701171875
694	0.7080078125	23.6311409403371	-0.0001041259765625	0.707977294921875
695	0.70556640625	23.6555409402755	-0.000113922119140625	0.705535888671875
696	0.703125	23.6799409402139	-0.0001109619140625	0.703155517578125
697	0.70068359375	23.7043409401523	-0.0001220703125	0.70068359375
698	0.6982421875	23.7287409400907	-0.000120819091796875	0.698211669921875
699	0.69580078125	23.7531409400291	-0.000127166748046875	0.695770263671875
700	0.693359375	23.7775409399675	-0.000129608154296875	0.69342041015625
701	0.69091796875	23.8019409399059	-0.000132720947265625	0.690948486328125
702	0.6884765625	23.8263409398443	-0.000139801025390625	0.68853759765625
703	0.68603515625	23.8507409397827	-0.00013812255859375	0.68609619140625
704	0.68359375	23.8751409397211	-0.0001466064453125	0.6837158203125
705	0.68115234375	23.8995409396595	-0.000142822265625	0.68121337890625
706	0.6787109375	23.9239409395979	-0.000153076171875	0.6788330078125
707	0.67626953125	23.9483409395363	-0.000150634765625	0.676361083984375
708	0.673828125	23.9727409394746	-0.00015667724609375	0.673919677734375
709	0.67138671875	23.997140939413	-0.000158355712890625	0.671478271484375
710	0.6689453125	24.0215409393514	-0.000161346435546875	0.6690673828125
711	0.66650390625	24.0459409392898	-0.00016748046875	0.6666259765625
712	0.6640625	24.0703409392282	-0.00016552734375	0.664154052734375
713	0.66162109375	24.0947409391666	-0.00017388916015625	0.661712646484375
714	0.6591796875	24.119140939105	-0.000169677734375	0.659271240234375
715	0.65673828125	24.1435409390434	-0.00017999267578125	0.6568603515625
716	0.654296875	24.1679409389818	-0.000176849365234375	0.654449462890625
717	0.65185546875	24.1923409389202	-0.00018310546875	0.6519775390625
718	0.6494140625	24.2167409388586	-0.000183837890625	0.649566650390625
719	0.64697265625	24.241140938797	-0.000187042236328125	0.6470947265625
720	0.64453125	24.2655409387354	-0.000192657470703125	0.6446533203125
721	0.64208984375	24.2899409386738	-0.000190643310546875	0.642303466796875
722	0.6396484375	24.3143409386122	-0.00019854736328125	0.639862060546875
723	0.63720703125	24.3387409385506	-0.000194091796875	0.637359619140625
724	0.634765625	24.363140938489	-0.000204254150390625	0.634918212890625
725	0.63232421875	24.3875409384274	-0.0002003173828125	0.6324462890625
726	0.6298828125	24.4119409383658	-0.00020654296875	0.630096435546875
727	0.62744140625	24.4363409383042	-0.00020635986328125	0.627685546875
728	0.625	24.4607409382426	-0.000209320068359375	0.625213623046875
729	0.62255859375	24.485140938181	-0.000213775634765625	0.62274169921875
730	0.6201171875	24.5095409381194	-0.00021148681640625	0.62030029296875
731	0.61767578125	24.5339409380578	-0.000218505859375	0.617889404296875
732	0.615234375	24.5583409379961	-0.00021343994140625	0.61541748046875
733	0.61279296875	24.5827409379345	-0.00022283935546875	0.613067626953125
734	0.6103515625	24.6071409378729	-0.0002178955078125	0.610626220703125
735	0.60791015625	24.6315409378113	-0.000223297119140625	0.608062744140625
736	0.60546875	24.6559409377497	-0.000222076416015625	0.605712890625
737	0.60302734375	24.6803409376881	-0.000224945068359375	0.603271484375
738	0.6005859375	24.7047409376265	-0.000228607177734375	0.600830078125
739	0.59814453125	24.7291409375649	-0.00022613525390625	0.598388671875
740	0.595703125	24.7535409375033	-0.000232391357421875	0.595977783203125
741	0.59326171875	24.7779409374417	-0.000227294921875	0.593505859375
742	0.5908203125	24.8023409373801	-0.00023626708984375	0.591064453125
743	0.58837890625	24.8267409373185	-0.000230987548828125	0.588592529296875
744	0.5859375	24.8511409372569	-0.000236602783203125	0.586212158203125
745	0.58349609375	24.8755409371953	-0.000234832763671875	0.583740234375
746	0.5810546875	24.8999409371337	-0.000237945556640625	0.58123779296875
747	0.57861328125	24.9243409370721	-0.000241180419921875	0.57891845703125
748	0.576171875	24.9487409370105	-0.0002388916015625	0.576446533203125
749	0.57373046875	24.9731409369489	-0.00024493408203125	0.57403564453125
750	0.5712890625	24.9975409368873	-0.000239959716796875	0.571563720703125
751	0.56884765625	25.0219409368257	-0.000249176025390625	0.56915283203125
752	0.56640625	25.0463409367641	-0.000243621826171875	0.566650390625
753	0.56396484375	25.0707409367025	-0.00024969482421875	0.564239501953125
754	0.5615234375	25.0951409366409	-0.00024749755859375	0.561798095703125
755	0.55908203125	25.1195409365793	-0.00025091552734375	0.559417724609375
756	0.556640625	25.1439409365177	-0.000253692626953125	0.55694580078125
757	0.55419921875	25.168340936456	-0.0002515869140625	0.55450439453125
758	0.5517578125	25.1927409363944	-0.0002572021484375	0.552001953125
759	0.54931640625	25.2171409363328	-0.000252349853515625	0.549591064453125
760	0.546875	25.2415409362712	-0.0002613525390625	0.547149658203125
761	0.54443359375	25.2659409362096	-0.000255218505859375	0.54473876953125
762	0.5419921875	25.290340936148	-0.00026116943359375	0.54229736328125
763	0.53955078125	25.3147409360864	-0.000258331298828125	0.539886474609375
764	0.537109375	25.3391409360248	-0.00026171875	0.53741455078125
765	0.53466796875	25.3635409359632	-0.000263671875	0.5350341796875
766	0.5322265625	25.3879409359016	-0.00026141357421875	0.53253173828125
767	0.52978515625	25.41234093584	-0.000265960693359375	0.530120849609375
768	0.52734375	25.4367409357784	-0.00026055908203125	0.527679443359375
769	0.52490234375	25.4611409357168	-0.000268798828125	0.525177001953125
770	0.5224609375	25.4855409356552	-0.000261993408203125	0.522796630859375
771	0.52001953125	25.5099409355936	-0.0002674560546875	0.520294189453125
772	0.517578125	25.534340935532	-0.000264007568359375	0.51788330078125
773	0.51513671875	25.5587409354704	-0.000267303466796875	0.51544189453125
774	0.5126953125	25.5831409354088	-0.00026849365234375	0.51300048828125
775	0.51025390625	25.6075409353472	-0.0002662353515625	0.51055908203125
776	0.5078125	25.6319409352856	-0.000270599365234375	0.50811767578125
777	0.50537109375	25.656340935224	-0.000265380859375	0.505706787109375
778	0.5029296875	25.6807409351624	-0.000273406982421875	0.503204345703125
779	0.50048828125	25.7051409351008	-0.000266754150390625	0.500823974609375
780	0.498046875	25.7295409350392	-0.000272552490234375	0.498382568359375
781	0.49560546875	25.7539409349775	-0.00026885986328125	0.495880126953125
782	0.4931640625	25.7783409349159	-0.000272857666015625	0.49346923828125
783	0.49072265625	25.8027409348543	-0.00027398681640625	0.49114990234375
784	0.48828125	25.8271409347927	-0.0002724609375	0.48858642578125
785	0.48583984375	25.8515409347311	-0.000276763916015625	0.4862060546875
786	0.4833984375	25.8759409346695	-0.00027197265625	0.4837646484375
787	0.48095703125	25.9003409346079	-0.00028045654296875	0.4813232421875
788	0.478515625	25.9247409345463	-0.000273529052734375	0.478851318359375
789	0.47607421875	25.9491409344847	-0.0002799072265625	0.4764404296875
790	0.4736328125	25.9735409344231	-0.00027569580078125	0.474029541015625
791	0.47119140625	25.9979409343615	-0.00028009033203125	0.471588134765625
792	0.46875	26.0223409342999	-0.000280670166015625	0.4691162109375
793	0.46630859375	26.0467409342383	-0.0002791748046875	0.466644287109375
794	0.4638671875	26.0711409341767	-0.000283233642578125	0.4642333984375
795	0.46142578125	26.0955409341151	-0.000278594970703125	0.461822509765625
796	0.458984375	26.1199409340535	-0.00028656005859375	0.45928955078125
797	0.45654296875	26.1443409339919	-0.000279296875	0.45697021484375
798	0.4541015625	26.1687409339303	-0.000285308837890625	0.4544677734375
799	0.45166015625	26.1931409338687	-0.00028045654296875	0.45208740234375
800	0.44921875	26.2175409338071	-0.00028466796875	0.4495849609375
801	0.44677734375	26.2419409337455	-0.000284454345703125	0.447235107421875
802	0.4443359375	26.2663409336839	-0.000283050537109375	0.444732666015625
803	0.44189453125	26.2907409336223	-0.000286224365234375	0.442291259765625
804	0.439453125	26.3151409335607	-0.00028179931640625	0.439849853515625
805	0.43701171875	26.3395409334991	-0.000289215087890625	0.437469482421875
806	0.4345703125	26.3639409334374	-0.00028179931640625	0.435028076171875
807	0.43212890625	26.3883409333758	-0.00028753662109375	0.43255615234375
808	0.4296875	26.4127409333142	-0.000282135009765625	0.43011474609375
809	0.42724609375	26.4371409332526	-0.000286590576171875	0.4276123046875
810	0.4248046875	26.461540933191	-0.00028594970703125	0.425201416015625
811	0.42236328125	26.4859409331294	-0.000284759521484375	0.4227294921875
812	0.419921875	26.5103409330678	-0.000287872314453125	0.420318603515625
813	0.41748046875	26.5347409330062	-0.00028369140625	0.417938232421875
814	0.4150390625	26.5591409329446	-0.00029095458984375	0.415496826171875
815	0.41259765625	26.583540932883	-0.000283905029296875	0.41302490234375
816	0.41015625	26.6079409328214	-0.000290130615234375	0.4105224609375
817	0.40771484375	26.6323409327598	-0.000284820556640625	0.408111572265625
818	0.4052734375	26.6567409326982	-0.0002901611328125	0.40570068359375
819	0.40283203125	26.6811409326366	-0.00028973388671875	0.4031982421875
820	0.400390625	26.705540932575	-0.00028924560546875	0.4007568359375
821	0.39794921875	26.7299409325134	-0.000292266845703125	0.398406982421875
822	0.3955078125	26.7543409324518	-0.000288421630859375	0.39593505859375
823	0.39306640625	26.7787409323902	-0.000295989990234375	0.393463134765625
824	0.390625	26.8031409323286	-0.00028863525390625	0.3909912109375
825	0.38818359375	26.827540932267	-0.000295166015625	0.3885498046875
826	0.3857421875	26.8519409322054	-0.000289459228515625	0.386199951171875
827	0.38330078125	26.8763409321438	-0.00029486083984375	0.38372802734375
828	0.380859375	26.9007409320822	-0.0002935791015625	0.38128662109375
829	0.37841796875	26.9251409320206	-0.00029296875	0.37884521484375
830	0.3759765625	26.9495409319589	-0.000295074462890625	0.376434326171875
831	0.37353515625	26.9739409318973	-0.000291229248046875	0.373992919921875
832	0.37109375	26.9983409318357	-0.0002978515625	0.37152099609375
833	0.36865234375	27.0227409317741	-0.000290313720703125	0.369110107421875
834	0.3662109375	27.0471409317125	-0.000296539306640625	0.36663818359375
835	0.36376953125	27.0715409316509	-0.000290069580078125	0.364227294921875
836	0.361328125	27.0959409315893	-0.00029541015625	0.361724853515625
837	0.35888671875	27.1203409315277	-0.0002935791015625	0.35931396484375
838	0.3564453125	27.1447409314661	-0.000293060302734375	0.356842041015625
839	0.35400390625	27.1691409314045	-0.000294891357421875	0.354461669921875
840	0.3515625	27.1935409313429	-0.000291168212890625	0.35205078125
841	0.34912109375	27.2179409312813	-0.000297821044921875	0.349517822265625
842	0.3466796875	27.2423409312197	-0.000290496826171875	0.34710693359375
843	0.34423828125	27.2667409311581	-0.000296844482421875	0.3446044921875
844	0.341796875	27.2911409310965	-0.000290435791015625	0.34222412109375
845	0.33935546875	27.3155409310349	-0.000296295166015625	0.339691162109375
846	0.3369140625	27.3399409309733	-0.00029437255859375	0.337310791015625
847	0.33447265625	27.3643409309117	-0.000294769287109375	0.3348388671875
848	0.33203125	27.3887409308501	-0.000296539306640625	0.332489013671875
849	0.32958984375	27.4131409307885	-0.000293609619140625	0.33001708984375
850	0.3271484375	27.4375409307269	-0.000300140380859375	0.327606201171875
851	0.32470703125	27.4619409306653	-0.00029327392578125	0.324737548828125
852	0.322265625	27.4863409306037	-0.0002999267578125	0.32232666015625
853	0.31982421875	27.5107409305421	-0.000293670654296875	0.319915771484375
854	0.3173828125	27.5351409304805	-0.000300079345703125	0.31744384765625
855	0.31494140625	27.5595409304188	-0.00029791259765625	0.314971923828125
856	0.3125	27.5839409303572	-0.000298614501953125	0.312530517578125
857	0.31005859375	27.6083409302956	-0.000300201416015625	0.31011962890625
858	0.3076171875	27.632740930234	-0.000297515869140625	0.3076171875
859	0.30517578125	27.6571409301724	-0.000303863525390625	0.305267333984375
860	0.302734375	27.6815409301108	-0.000296966552734375	0.30279541015625
861	0.30029296875	27.7059409300492	-0.0003035888671875	0.300323486328125
862	0.2978515625	27.7303409299876	-0.000296966552734375	0.297882080078125
863	0.29541015625	27.754740929926	-0.0003033447265625	0.29547119140625
864	0.29296875	27.7791409298644	-0.000300506591796875	0.29302978515625
865	0.29052734375	27.8035409298028	-0.000301361083984375	0.290557861328125
866	0.2880859375	27.8279409297412	-0.0003023681640625	0.288177490234375
867	0.28564453125	27.8523409296796	-0.0002998046875	0.28564453125
868	0.283203125	27.876740929618	-0.000305633544921875	0.28326416015625
869	0.28076171875	27.9011409295564	-0.0002987060546875	0.28082275390625
870	0.2783203125	27.9255409294948	-0.000305023193359375	0.278411865234375
871	0.27587890625	27.9499409294332	-0.000297882080078125	0.27593994140625
872	0.2734375	27.9743409293716	-0.000304443359375	0.273468017578125
873	0.27099609375	27.99874092931	-0.000301239013671875	0.271026611328125
874	0.2685546875	28.0231409292484	-0.000302398681640625	0.26861572265625
875	0.26611328125	28.0475409291868	-0.00030303955078125	0.26617431640625
876	0.263671875	28.0719409291252	-0.0003009033203125	0.26373291015625
877	0.26123046875	28.0963409290636	-0.000306427001953125	0.2613525390625
878	0.2587890625	28.120740929002	-0.000299774169921875	0.258819580078125
879	0.25634765625	28.1451409289404	-0.00030621337890625	0.2564697265625
880	0.25390625	28.1695409288787	-0.000299041748046875	0.25396728515625
881	0.25146484375	28.1939409288171	-0.000305755615234375	0.25152587890625
882	0.2490234375	28.2183409287555	-0.000302337646484375	0.24908447265625
883	0.24658203125	28.2427409286939	-0.00030401611328125	0.246612548828125
884	0.244140625	28.2671409286323	-0.000304290771484375	0.244232177734375
885	0.24169921875	28.2915409285707	-0.000302764892578125	0.24176025390625
886	0.2392578125	28.3159409285091	-0.00030828857421875	0.23931884765625
887	0.23681640625	28.3403409284475	-0.0003018798828125	0.236846923828125
888	0.234375	28.3647409283859	-0.000308441162109375	0.23443603515625
889	0.23193359375	28.3891409283243	-0.000301300048828125	0.23199462890625
890	0.2294921875	28.4135409282627	-0.00030853271484375	0.2294921875
891	0.22705078125	28.4379409282011	-0.000304595947265625	0.22711181640625
892	0.224609375	28.4623409281395	-0.00030645751953125	0.224700927734375
893	0.22216796875	28.4867409280779	-0.0003065185546875	0.22216796875
894	0.2197265625	28.5111409280163	-0.000305206298828125	0.21978759765625
895	0.21728515625	28.5355409279547	-0.00031011962890625	0.217315673828125
896	0.21484375	28.5599409278931	-0.000303955078125	0.214935302734375
897	0.21240234375	28.5843409278315	-0.000310211181640625	0.21246337890625
898	0.2099609375	28.6087409277699	-0.000302947998046875	0.21002197265625
899	0.20751953125	28.6331409277083	-0.00031011962890625	0.20758056640625
900	0.205078125	28.6575409276467	-0.0003056640625	0.205078125
901	0.20263671875	28.6819409275851	-0.0003079833984375	0.2027587890625
902	0.2001953125	28.7063409275235	-0.000307403564453125	0.200286865234375
903	0.19775390625	28.7307409274619	-0.000306427001953125	0.197845458984375
904	0.1953125	28.7551409274002	-0.00031097412109375	0.195404052734375
905	0.19287109375	28.7795409273386	-0.00030499267578125	0.19293212890625
906	0.1904296875	28.803940927277	-0.0003111572265625	0.19049072265625
907	0.18798828125	28.8283409272154	-0.0003037109375	0.188079833984375
908	0.185546875	28.8527409271538	-0.000311004638671875	0.1856689453125
909	0.18310546875	28.8771409270922	-0.00030615234375	0.1832275390625
910	0.1806640625	28.9015409270306	-0.00030865478515625	0.1807861328125
911	0.17822265625	28.925940926969	-0.0003077392578125	0.178314208984375
912	0.17578125	28.9503409269074	-0.000307220458984375	0.175872802734375
913	0.17333984375	28.9747409268458	-0.0003114013671875	0.17340087890625
914	0.1708984375	28.9991409267842	-0.00030572509765625	0.170989990234375
915	0.16845703125	29.0235409267226	-0.0003118896484375	0.168548583984375
916	0.166015625	29.047940926661	-0.000304534912109375	0.16607666015625
917	0.16357421875	29.0723409265994	-0.0003121337890625	0.163665771484375
918	0.1611328125	29.0967409265378	-0.00030682373046875	0.16119384765625
919	0.15869140625	29.1211409264762	-0.000309906005859375	0.158782958984375
920	0.15625	29.1455409264146	-0.00030859375	0.1563720703125
921	0.15380859375	29.169940926353	-0.000308624267578125	0.153900146484375
922	0.1513671875	29.1943409262914	-0.0003125	0.1514892578125
923	0.14892578125	29.2187409262298	-0.0003072509765625	0.149017333984375
924	0.146484375	29.2431409261682	-0.000313201904296875	0.146575927734375
925	0.14404296875	29.2675409261066	-0.00030609130859375	0.14410400390625
926	0.1416015625	29.291940926045	-0.00031390380859375	0.141632080078125
927	0.13916015625	29.3163409259834	-0.000308197021484375	0.139251708984375
928	0.13671875	29.3407409259218	-0.00031170654296875	0.13677978515625
929	0.13427734375	29.3651409258601	-0.00030999755859375	0.13446044921875
930	0.1318359375	29.3895409257985	-0.00031048583984375	0.13189697265625
931	0.12939453125	29.4139409257369	-0.000313873291015625	0.12945556640625
932	0.126953125	29.4383409256753	-0.000308990478515625	0.1270751953125
933	0.12451171875	29.4627409256137	-0.0003145751953125	0.124603271484375
934	0.1220703125	29.4871409255521	-0.000307403564453125	0.122161865234375
935	0.11962890625	29.5115409254905	-0.000315216064453125	0.119720458984375
936	0.1171875	29.5359409254289	-0.00030902099609375	0.117279052734375
937	0.11474609375	29.5603409253673	-0.000312774658203125	0.11480712890625
938	0.1123046875	29.5847409253057	-0.0003106689453125	0.11236572265625
939	0.10986328125	29.6091409252441	-0.000311431884765625	0.109954833984375
940	0.107421875	29.6335409251825	-0.000314361572265625	0.10748291015625
941	0.10498046875	29.6579409251209	-0.000309814453125	0.105133056640625
942	0.1025390625	29.6823409250593	-0.00031524658203125	0.1026611328125
943	0.10009765625	29.7067409249977	-0.000308258056640625	0.100250244140625
944	0.09765625	29.7311409249361	-0.000316162109375	0.097747802734375
945	0.09521484375	29.7555409248745	-0.000309539794921875	0.095367431640625
946	0.0927734375	29.7799409248129	-0.000313720703125	0.092864990234375
947	0.09033203125	29.8043409247513	-0.000311126708984375	0.0904541015625
948	0.087890625	29.8287409246897	-0.000312530517578125	0.087982177734375
949	0.08544921875	29.8531409246281	-0.000315032958984375	0.0855712890625
950	0.0830078125	29.8775409245665	-0.000310943603515625	0.08306884765625
951	0.08056640625	29.9019409245049	-0.000316192626953125	0.0806884765625
952	0.078125	29.9263409244433	-0.000309539794921875	0.0782470703125
953	0.07568359375	29.9507409243816	-0.00031756591796875	0.0758056640625
954	0.0732421875	29.97514092432	-0.000310577392578125	0.073333740234375
955	0.07080078125	29.9995409242584	-0.00031512451171875	0.0709228515625
956	0.068359375	30.0239409241968	-0.00031201171875	0.0684814453125
957	0.06591796875	30.0483409241352	-0.0003138427734375	0.066009521484375
958	0.0634765625	30.0727409240736	-0.00031573486328125	0.0635986328125
959	0.06103515625	30.097140924012	-0.00031195068359375	0.061126708984375
960	0.05859375	30.1215409239504	-0.000316741943359375	0.0587158203125
961	0.05615234375	30.1459409238888	-0.00031011962890625	0.05621337890625
962	0.0537109375	30.1703409238272	-0.000318115234375	0.053802490234375
963	0.05126953125	30.1947409237656	-0.000310821533203125	0.051361083984375
964	0.048828125	30.219140923704	-0.000315673828125	0.0489898681640625
965	0.04638671875	30.2435409236424	-0.00031195068359375	0.0465545654296875
966	0.0439453125	30.2679409235808	-0.000314483642578125	0.0441162109375
967	0.04150390625	30.2923409235192	-0.000315673828125	0.0416473388671875
968	0.0390625	30.3167409234576	-0.00031256103515625	0.039202880859375
969	0.03662109375	30.341140923396	-0.00031683349609375	0.036773681640625
970	0.0341796875	30.3655409233344	-0.000310638427734375	0.034332275390625
971	0.03173828125	30.3899409232728	-0.000318572998046875	0.0319061279296875
972	0.029296875	30.4143409232112	-0.000311065673828125	0.0294403076171875
973	0.02685546875	30.4387409231496	-0.000316314697265625	0.02703857421875
974	0.0244140625	30.463140923088	-0.00031219482421875	0.02457275390625
975	0.02197265625	30.4875409230264	-0.0003153076171875	0.022161865234375
976	0.01953125	30.5119409229648	-0.00031610107421875	0.0196807861328125
977	0.01708984375	30.5363409229032	-0.000313507080078125	0.0172393798828125
978	0.0146484375	30.5607409228415	-0.00031756591796875	0.0148040771484375
979	0.01220703125	30.5851409227799	-0.00031195068359375	0.0123626708984375
980	0.009765625	30.6095409227183	-0.00031976318359375	0.009930419921875
981	0.00732421875	30.6339409226567	-0.00031219482421875	0.007476806640625
982	0.0048828125	30.6583409225951	-0.00031781005859375	0.00505981445312501
983	0.00244140625	30.6827409225335	-0.000313262939453125	0.00258789062500001
984	0	30.7071409224719	-0.00031695556640625	0.0001678466796875
985	0.00244140625	30.7315409224103	-0.000316925048828125	0.0025970458984375
986	0.0048828125	30.7559409223487	-0.000314453125	0.00502929687500001
