Index	Potential applied (V)	Time (s)	WE(1).Current (A)	WE(1).Potential (V)
1	0.00244140625	137.865369651923	-0.0045697021484375	0.0026275634765625
2	0.0048828125	137.889769651862	-0.004622802734375	0.0051300048828125
3	0.00732421875	137.9141696518	-0.00458526611328125	0.00754394531249999
4	0.009765625	137.938569651739	-0.0046002197265625	0.00997314453125001
5	0.01220703125	137.962969651677	-0.00461090087890625	0.0124542236328125
6	0.0146484375	137.987369651615	-0.004576416015625	0.014837646484375
7	0.01708984375	138.011769651554	-0.00462677001953125	0.0173828125
8	0.01953125	138.036169651492	-0.004564208984375	0.01971435546875
9	0.02197265625	138.060569651431	-0.00462371826171875	0.0222412109375
10	0.0244140625	138.084969651369	-0.004573974609375	0.0246337890625
11	0.02685546875	138.109369651307	-0.0046026611328125	0.0270782470703125
12	0.029296875	138.133769651246	-0.00459625244140625	0.0295379638671875
13	0.03173828125	138.158169651184	-0.00457611083984375	0.0319183349609375
14	0.0341796875	138.182569651123	-0.00461669921875	0.034442138671875
15	0.03662109375	138.206969651061	-0.0045574951171875	0.03681640625
16	0.0390625	138.231369650999	-0.00461822509765625	0.039324951171875
17	0.04150390625	138.255769650938	-0.004560546875	0.0417022705078125
18	0.0439453125	138.280169650876	-0.00460205078125	0.0441650390625
19	0.04638671875	138.304569650815	-0.0045806884765625	0.046624755859375
20	0.048828125	138.328969650753	-0.00457427978515625	0.049713134765625
21	0.05126953125	138.353369650691	-0.00460418701171875	0.052215576171875
22	0.0537109375	138.37776965063	-0.0045526123046875	0.054656982421875
23	0.05615234375	138.402169650568	-0.00461212158203125	0.057098388671875
24	0.05859375	138.426569650507	-0.0045489501953125	0.0595703125
25	0.06103515625	138.450969650445	-0.0045989990234375	0.061981201171875
26	0.0634765625	138.475369650383	-0.0045654296875	0.06439208984375
27	0.06591796875	138.499769650322	-0.0045733642578125	0.06683349609375
28	0.068359375	138.52416965026	-0.0045892333984375	0.069244384765625
29	0.07080078125	138.548569650198	-0.00454803466796875	0.0716552734375
30	0.0732421875	138.572969650137	-0.0046026611328125	0.07415771484375
31	0.07568359375	138.597369650075	-0.00453887939453125	0.0765380859375
32	0.078125	138.621769650014	-0.00459686279296875	0.079010009765625
33	0.08056640625	138.646169649952	-0.00455078125	0.08154296875
34	0.0830078125	138.67056964989	-0.00457427978515625	0.0838623046875
35	0.08544921875	138.694969649829	-0.0045745849609375	0.086395263671875
36	0.087890625	138.719369649767	-0.0045477294921875	0.088775634765625
37	0.09033203125	138.743769649706	-0.004593505859375	0.09124755859375
38	0.0927734375	138.768169649644	-0.0045306396484375	0.0936279296875
39	0.09521484375	138.792569649582	-0.00459228515625	0.096160888671875
40	0.09765625	138.816969649521	-0.00453582763671875	0.098541259765625
41	0.10009765625	138.841369649459	-0.0045733642578125	0.101043701171875
42	0.1025390625	138.865769649398	-0.00455718994140625	0.103485107421875
43	0.10498046875	138.890169649336	-0.00454437255859375	0.1058349609375
44	0.107421875	138.914569649274	-0.00457855224609375	0.108367919921875
45	0.10986328125	138.938969649213	-0.00452423095703125	0.1107177734375
46	0.1123046875	138.963369649151	-0.00458587646484375	0.11322021484375
47	0.11474609375	138.98776964909	-0.00452239990234375	0.115631103515625
48	0.1171875	139.012169649028	-0.00457183837890625	0.1180419921875
49	0.11962890625	139.036569648966	-0.00454071044921875	0.120513916015625
50	0.1220703125	139.060969648905	-0.0045452880859375	0.1229248046875
51	0.12451171875	139.085369648843	-0.00456634521484375	0.12542724609375
52	0.126953125	139.109769648782	-0.0045208740234375	0.127838134765625
53	0.12939453125	139.13416964872	-0.004578857421875	0.13031005859375
54	0.1318359375	139.158569648658	-0.00451324462890625	0.132720947265625
55	0.13427734375	139.182969648597	-0.0045709228515625	0.135223388671875
56	0.13671875	139.207369648535	-0.00452667236328125	0.13763427734375
57	0.13916015625	139.231769648474	-0.00454742431640625	0.14007568359375
58	0.1416015625	139.256169648412	-0.0045526123046875	0.14251708984375
59	0.14404296875	139.28056964835	-0.00452056884765625	0.1448974609375
60	0.146484375	139.304969648289	-0.00457122802734375	0.14739990234375
61	0.14892578125	139.329369648227	-0.00450653076171875	0.149810791015625
62	0.1513671875	139.353769648166	-0.00457000732421875	0.15228271484375
63	0.15380859375	139.378169648104	-0.00451446533203125	0.154632568359375
64	0.15625	139.402569648042	-0.00455047607421875	0.1571044921875
65	0.15869140625	139.426969647981	-0.00453887939453125	0.159576416015625
66	0.1611328125	139.451369647919	-0.004521484375	0.1619873046875
67	0.16357421875	139.475769647858	-0.00456085205078125	0.164520263671875
68	0.166015625	139.500169647796	-0.004501953125	0.166900634765625
69	0.16845703125	139.524569647734	-0.004566650390625	0.169342041015625
70	0.1708984375	139.548969647673	-0.004503173828125	0.171783447265625
71	0.17333984375	139.573369647611	-0.00455047607421875	0.1741943359375
72	0.17578125	139.59776964755	-0.00452301025390625	0.1766357421875
73	0.17822265625	139.622169647488	-0.00452362060546875	0.179107666015625
74	0.1806640625	139.646569647426	-0.00454833984375	0.181610107421875
75	0.18310546875	139.670969647365	-0.00449859619140625	0.183990478515625
76	0.185546875	139.695369647303	-0.00456024169921875	0.1865234375
77	0.18798828125	139.719769647241	-0.00449371337890625	0.18878173828125
78	0.1904296875	139.74416964718	-0.0045513916015625	0.1912841796875
79	0.19287109375	139.768569647118	-0.00450897216796875	0.193756103515625
80	0.1953125	139.792969647057	-0.00452484130859375	0.19610595703125
81	0.19775390625	139.817369646995	-0.00453399658203125	0.1986083984375
82	0.2001953125	139.841769646933	-0.004498291015625	0.201019287109375
83	0.20263671875	139.866169646872	-0.00455230712890625	0.203521728515625
84	0.205078125	139.89056964681	-0.0044854736328125	0.20587158203125
85	0.20751953125	139.914969646749	-0.004549560546875	0.208404541015625
86	0.2099609375	139.939369646687	-0.00449615478515625	0.2108154296875
87	0.21240234375	139.963769646625	-0.004527587890625	0.21319580078125
88	0.21484375	139.988169646564	-0.004520263671875	0.215728759765625
89	0.21728515625	140.012569646502	-0.0044989013671875	0.2181396484375
90	0.2197265625	140.036969646441	-0.00454254150390625	0.220703125
91	0.22216796875	140.061369646379	-0.00448150634765625	0.22296142578125
92	0.224609375	140.085769646317	-0.00454803466796875	0.2254638671875
93	0.22705078125	140.110169646256	-0.00448516845703125	0.227874755859375
94	0.2294921875	140.134569646194	-0.00453155517578125	0.230316162109375
95	0.23193359375	140.158969646133	-0.00450775146484375	0.232757568359375
96	0.234375	140.183369646071	-0.00450347900390625	0.23516845703125
97	0.23681640625	140.207769646009	-0.00453338623046875	0.237701416015625
98	0.2392578125	140.232169645948	-0.00447998046875	0.240081787109375
99	0.24169921875	140.256569645886	-0.00454345703125	0.242584228515625
100	0.244140625	140.280969645825	-0.00447662353515625	0.244903564453125
101	0.24658203125	140.305369645763	-0.00453338623046875	0.247406005859375
102	0.2490234375	140.329769645701	-0.00449432373046875	0.249847412109375
103	0.25146484375	140.35416964564	-0.0045068359375	0.25225830078125
104	0.25390625	140.378569645578	-0.004520263671875	0.254791259765625
105	0.25634765625	140.402969645517	-0.00448028564453125	0.25714111328125
106	0.2587890625	140.427369645455	-0.004537353515625	0.259613037109375
107	0.26123046875	140.451769645393	-0.00446624755859375	0.262054443359375
108	0.263671875	140.476169645332	-0.00452850341796875	0.264495849609375
109	0.26611328125	140.50056964527	-0.00447509765625	0.26690673828125
110	0.2685546875	140.524969645209	-0.0045037841796875	0.26934814453125
111	0.27099609375	140.549369645147	-0.0045001220703125	0.271881103515625
112	0.2734375	140.573769645085	-0.0044744873046875	0.274200439453125
113	0.27587890625	140.598169645024	-0.00452178955078125	0.276763916015625
114	0.2783203125	140.622569644962	-0.0044573974609375	0.27911376953125
115	0.28076171875	140.646969644901	-0.00452484130859375	0.2816162109375
116	0.283203125	140.671369644839	-0.00446197509765625	0.284027099609375
117	0.28564453125	140.695769644777	-0.004505615234375	0.28643798828125
118	0.2880859375	140.720169644716	-0.00448486328125	0.2889404296875
119	0.29052734375	140.744569644654	-0.004476318359375	0.291290283203125
120	0.29296875	140.768969644593	-0.00451019287109375	0.2938232421875
121	0.29541015625	140.793369644531	-0.004453125	0.29620361328125
122	0.2978515625	140.817769644469	-0.0045196533203125	0.298797607421875
123	0.30029296875	140.842169644408	-0.0044512939453125	0.301025390625
124	0.302734375	140.866569644346	-0.0045068359375	0.303558349609375
125	0.30517578125	140.890969644284	-0.00447052001953125	0.305938720703125
126	0.3076171875	140.915369644223	-0.0044793701171875	0.308349609375
127	0.31005859375	140.939769644161	-0.0044970703125	0.3109130859375
128	0.3125	140.9641696441	-0.0044525146484375	0.31329345703125
129	0.31494140625	140.988569644038	-0.00451324462890625	0.315765380859375
130	0.3173828125	141.012969643976	-0.0044427490234375	0.31817626953125
131	0.31982421875	141.037369643915	-0.00450592041015625	0.320709228515625
132	0.322265625	141.061769643853	-0.00445526123046875	0.323089599609375
133	0.32470703125	141.086169643792	-0.00448089599609375	0.325469970703125
134	0.3271484375	141.11056964373	-0.00448089599609375	0.328033447265625
135	0.32958984375	141.134969643668	-0.00445037841796875	0.330322265625
136	0.33203125	141.159369643607	-0.0045013427734375	0.332855224609375
137	0.33447265625	141.183769643545	-0.004434814453125	0.335235595703125
138	0.3369140625	141.208169643484	-0.00450347900390625	0.3377685546875
139	0.33935546875	141.232569643422	-0.0044415283203125	0.340118408203125
140	0.341796875	141.25696964336	-0.004482421875	0.342559814453125
141	0.34423828125	141.281369643299	-0.00446533203125	0.345062255859375
142	0.3466796875	141.305769643237	-0.00445281982421875	0.34747314453125
143	0.34912109375	141.330169643176	-0.00449188232421875	0.350006103515625
144	0.3515625	141.354569643114	-0.0044305419921875	0.352325439453125
145	0.35400390625	141.378969643052	-0.0044989013671875	0.3548583984375
146	0.3564453125	141.403369642991	-0.004429931640625	0.357208251953125
147	0.35888671875	141.427769642929	-0.00448394775390625	0.35968017578125
148	0.361328125	141.452169642868	-0.00445037841796875	0.362152099609375
149	0.36376953125	141.476569642806	-0.00445465087890625	0.364471435546875
150	0.3662109375	141.500969642744	-0.0044775390625	0.3670654296875
151	0.36865234375	141.525369642683	-0.0044293212890625	0.369384765625
152	0.37109375	141.549769642621	-0.004493408203125	0.3719482421875
153	0.37353515625	141.57416964256	-0.00442138671875	0.37432861328125
154	0.3759765625	141.598569642498	-0.00448486328125	0.37677001953125
155	0.37841796875	141.622969642436	-0.004437255859375	0.37921142578125
156	0.380859375	141.647369642375	-0.0044586181640625	0.381622314453125
157	0.38330078125	141.671769642313	-0.004464111328125	0.384124755859375
158	0.3857421875	141.696169642252	-0.00442901611328125	0.38653564453125
159	0.38818359375	141.72056964219	-0.00448394775390625	0.38897705078125
160	0.390625	141.744969642128	-0.00441436767578125	0.391387939453125
161	0.39306640625	141.769369642067	-0.0044830322265625	0.393890380859375
162	0.3955078125	141.793769642005	-0.0044219970703125	0.39630126953125
163	0.39794921875	141.818169641944	-0.00445953369140625	0.398712158203125
164	0.400390625	141.842569641882	-0.0044464111328125	0.40118408203125
165	0.40283203125	141.86696964182	-0.0044287109375	0.403533935546875
166	0.4052734375	141.891369641759	-0.00447174072265625	0.406097412109375
167	0.40771484375	141.915769641697	-0.00440765380859375	0.408477783203125
168	0.41015625	141.940169641636	-0.00447784423828125	0.410980224609375
169	0.41259765625	141.964569641574	-0.004407958984375	0.413360595703125
170	0.4150390625	141.988969641512	-0.00446044921875	0.41583251953125
171	0.41748046875	142.013369641451	-0.00443084716796875	0.418243408203125
172	0.419921875	142.037769641389	-0.00442840576171875	0.420684814453125
173	0.42236328125	142.062169641328	-0.00445587158203125	0.423187255859375
174	0.4248046875	142.086569641266	-0.00440277099609375	0.425506591796875
175	0.42724609375	142.110969641204	-0.00446929931640625	0.428009033203125
176	0.4296875	142.135369641143	-0.0043951416015625	0.430389404296875
177	0.43212890625	142.159769641081	-0.00445709228515625	0.432891845703125
178	0.4345703125	142.184169641019	-0.00441162109375	0.435302734375
179	0.43701171875	142.208569640958	-0.0044293212890625	0.437713623046875
180	0.439453125	142.232969640896	-0.00444000244140625	0.440277099609375
181	0.44189453125	142.257369640835	-0.004398193359375	0.442626953125
182	0.4443359375	142.281769640773	-0.0044580078125	0.445159912109375
183	0.44677734375	142.306169640711	-0.00438507080078125	0.447479248046875
184	0.44921875	142.33056964065	-0.00445404052734375	0.45001220703125
185	0.45166015625	142.354969640588	-0.00439422607421875	0.45245361328125
186	0.4541015625	142.379369640527	-0.00442718505859375	0.454803466796875
187	0.45654296875	142.403769640465	-0.00441986083984375	0.45733642578125
188	0.458984375	142.428169640403	-0.00439483642578125	0.459686279296875
189	0.46142578125	142.452569640342	-0.004443359375	0.462249755859375
190	0.4638671875	142.47696964028	-0.00437408447265625	0.464569091796875
191	0.46630859375	142.501369640219	-0.00444427490234375	0.46710205078125
192	0.46875	142.525769640157	-0.00437591552734375	0.469512939453125
193	0.47119140625	142.550169640095	-0.00442413330078125	0.471954345703125
194	0.4736328125	142.574569640034	-0.00439910888671875	0.474365234375
195	0.47607421875	142.598969639972	-0.0043914794921875	0.476806640625
196	0.478515625	142.623369639911	-0.00442596435546875	0.479339599609375
197	0.48095703125	142.647769639849	-0.00436614990234375	0.481597900390625
198	0.4833984375	142.672169639787	-0.00443634033203125	0.484161376953125
199	0.48583984375	142.696569639726	-0.0043609619140625	0.486572265625
200	0.48828125	142.720969639664	-0.0044207763671875	0.489013671875
201	0.49072265625	142.745369639603	-0.00437957763671875	0.49151611328125
202	0.4931640625	142.769769639541	-0.00438873291015625	0.493865966796875
203	0.49560546875	142.794169639479	-0.0044073486328125	0.49639892578125
204	0.498046875	142.818569639418	-0.004359130859375	0.49871826171875
205	0.50048828125	142.842969639356	-0.004422607421875	0.50128173828125
206	0.5029296875	142.867369639295	-0.0043475341796875	0.503631591796875
207	0.50537109375	142.891769639233	-0.00441558837890625	0.506103515625
208	0.5078125	142.916169639171	-0.00435882568359375	0.508453369140625
209	0.51025390625	142.94056963911	-0.0043865966796875	0.510955810546875
210	0.5126953125	142.964969639048	-0.0043865966796875	0.51348876953125
211	0.51513671875	142.989369638987	-0.00435455322265625	0.51580810546875
212	0.517578125	143.013769638925	-0.00441009521484375	0.518341064453125
213	0.52001953125	143.038169638863	-0.00433502197265625	0.52069091796875
214	0.5224609375	143.062569638802	-0.004407958984375	0.523193359375
215	0.52490234375	143.08696963874	-0.0043402099609375	0.525604248046875
216	0.52734375	143.111369638679	-0.00438446044921875	0.52801513671875
217	0.52978515625	143.135769638617	-0.00436676025390625	0.530517578125
218	0.5322265625	143.160169638555	-0.00435089111328125	0.532867431640625
219	0.53466796875	143.184569638494	-0.00439117431640625	0.535430908203125
220	0.537109375	143.208969638432	-0.00432464599609375	0.537811279296875
221	0.53955078125	143.233369638371	-0.0043988037109375	0.540252685546875
222	0.5419921875	143.257769638309	-0.00432220458984375	0.54266357421875
223	0.54443359375	143.282169638247	-0.00437896728515625	0.54510498046875
224	0.546875	143.306569638186	-0.00434234619140625	0.547607421875
225	0.54931640625	143.330969638124	-0.00434661865234375	0.550018310546875
226	0.5517578125	143.355369638062	-0.00437103271484375	0.552520751953125
227	0.55419921875	143.379769638001	-0.0043145751953125	0.554840087890625
228	0.556640625	143.404169637939	-0.004383544921875	0.557342529296875
229	0.55908203125	143.428569637878	-0.00430328369140625	0.5596923828125
230	0.5615234375	143.452969637816	-0.00437164306640625	0.562225341796875
231	0.56396484375	143.477369637754	-0.00431884765625	0.564697265625
232	0.56640625	143.501769637693	-0.00433868408203125	0.5670166015625
233	0.56884765625	143.526169637631	-0.00434478759765625	0.569549560546875
234	0.5712890625	143.55056963757	-0.00430419921875	0.57196044921875
235	0.57373046875	143.574969637508	-0.00436492919921875	0.574462890625
236	0.576171875	143.599369637446	-0.00428375244140625	0.57684326171875
237	0.57861328125	143.623769637385	-0.0043572998046875	0.579345703125
238	0.5810546875	143.648169637323	-0.004290771484375	0.58172607421875
239	0.58349609375	143.672569637262	-0.0043292236328125	0.58416748046875
240	0.5859375	143.6969696372	-0.0043157958984375	0.58660888671875
241	0.58837890625	143.721369637138	-0.00429107666015625	0.5889892578125
242	0.5908203125	143.745769637077	-0.0043389892578125	0.591583251953125
243	0.59326171875	143.770169637015	-0.00426544189453125	0.5938720703125
244	0.595703125	143.794569636954	-0.004342041015625	0.596405029296875
245	0.59814453125	143.818969636892	-0.00426483154296875	0.59881591796875
246	0.6005859375	143.84336963683	-0.0043170166015625	0.60125732421875
247	0.60302734375	143.867769636769	-0.0042852783203125	0.60369873046875
248	0.60546875	143.892169636707	-0.00427947998046875	0.606109619140625
249	0.60791015625	143.916569636646	-0.00431243896484375	0.60870361328125
250	0.6103515625	143.940969636584	-0.00424560546875	0.610992431640625
251	0.61279296875	143.965369636522	-0.00431915283203125	0.61358642578125
252	0.615234375	143.989769636461	-0.00423583984375	0.615875244140625
253	0.61767578125	144.014169636399	-0.0043011474609375	0.6182861328125
254	0.6201171875	144.038569636338	-0.00425079345703125	0.620758056640625
255	0.62255859375	144.062969636276	-0.0042633056640625	0.62322998046875
256	0.625	144.087369636214	-0.00427703857421875	0.62567138671875
257	0.62744140625	144.111769636153	-0.0042266845703125	0.628082275390625
258	0.6298828125	144.136169636091	-0.0042938232421875	0.630584716796875
259	0.63232421875	144.16056963603	-0.0042059326171875	0.63287353515625
260	0.634765625	144.184969635968	-0.00428131103515625	0.6353759765625
261	0.63720703125	144.209369635906	-0.0042138671875	0.637847900390625
262	0.6396484375	144.233769635845	-0.00424652099609375	0.64031982421875
263	0.64208984375	144.258169635783	-0.00424072265625	0.64276123046875
264	0.64453125	144.282569635722	-0.0042047119140625	0.645111083984375
265	0.64697265625	144.30696963566	-0.0042608642578125	0.647705078125
266	0.6494140625	144.331369635598	-0.0041778564453125	0.64996337890625
267	0.65185546875	144.355769635537	-0.00425567626953125	0.65252685546875
268	0.654296875	144.380169635475	-0.0041748046875	0.6549072265625
269	0.65673828125	144.404569635414	-0.00422210693359375	0.657379150390625
270	0.6591796875	144.428969635352	-0.0041961669921875	0.65985107421875
271	0.66162109375	144.45336963529	-0.0041802978515625	0.662139892578125
272	0.6640625	144.477769635229	-0.0042205810546875	0.66473388671875
273	0.66650390625	144.502169635167	-0.00414276123046875	0.6669921875
274	0.6689453125	144.526569635105	-0.0042205810546875	0.669677734375
275	0.67138671875	144.550969635044	-0.0041314697265625	0.671966552734375
276	0.673828125	144.575369634982	-0.00419403076171875	0.674468994140625
277	0.67626953125	144.599769634921	-0.00414703369140625	0.6768798828125
278	0.6787109375	144.624169634859	-0.00415069580078125	0.679229736328125
279	0.68115234375	144.648569634797	-0.00417236328125	0.681732177734375
280	0.68359375	144.672969634736	-0.00411102294921875	0.684112548828125
281	0.68603515625	144.697369634674	-0.0041839599609375	0.686676025390625
282	0.6884765625	144.721769634613	-0.0040887451171875	0.68896484375
283	0.69091796875	144.746169634551	-0.00416351318359375	0.69140625
284	0.693359375	144.770569634489	-0.0040960693359375	0.693939208984375
285	0.69580078125	144.794969634428	-0.00412078857421875	0.696319580078125
286	0.6982421875	144.819369634366	-0.0041217041015625	0.698822021484375
287	0.70068359375	144.843769634305	-0.0040716552734375	0.701171875
288	0.703125	144.868169634243	-0.00413482666015625	0.703765869140625
289	0.70556640625	144.892569634181	-0.00404083251953125	0.70599365234375
290	0.7080078125	144.91696963412	-0.004122314453125	0.708587646484375
291	0.71044921875	144.941369634058	-0.00403839111328125	0.7109375
292	0.712890625	144.965769633997	-0.0040802001953125	0.71331787109375
293	0.71533203125	144.990169633935	-0.0040570068359375	0.715850830078125
294	0.7177734375	145.014569633873	-0.00403076171875	0.71820068359375
295	0.72021484375	145.038969633812	-0.00407867431640625	0.72076416015625
296	0.72265625	145.06336963375	-0.00398895263671875	0.723114013671875
297	0.72509765625	145.087769633689	-0.0040704345703125	0.725677490234375
298	0.7275390625	145.112169633627	-0.00397552490234375	0.727996826171875
299	0.72998046875	145.136569633565	-0.00403472900390625	0.730499267578125
300	0.732421875	145.160969633504	-0.00398895263671875	0.732879638671875
301	0.73486328125	145.185369633442	-0.00398101806640625	0.735260009765625
302	0.7373046875	145.209769633381	-0.0040081787109375	0.737823486328125
303	0.73974609375	145.234169633319	-0.00393310546875	0.7401123046875
304	0.7421875	145.258569633257	-0.0040093994140625	0.742706298828125
305	0.74462890625	145.282969633196	-0.00390625	0.74505615234375
306	0.7470703125	145.307369633134	-0.00397796630859375	0.747528076171875
307	0.74951171875	145.331769633073	-0.00390899658203125	0.74859619140625
308	0.751953125	145.356169633011	-0.00392730712890625	0.7513427734375
309	0.75439453125	145.380569632949	-0.0039288330078125	0.7537841796875
310	0.7568359375	145.404969632888	-0.0038671875	0.75592041015625
311	0.75927734375	145.429369632826	-0.003934326171875	0.75897216796875
312	0.76171875	145.453769632765	-0.003831787109375	0.7611083984375
313	0.76416015625	145.478169632703	-0.00391357421875	0.76324462890625
314	0.7666015625	145.502569632641	-0.00382537841796875	0.7659912109375
315	0.76904296875	145.52696963258	-0.00386260986328125	0.767822265625
316	0.771484375	145.551369632518	-0.00384002685546875	0.7708740234375
317	0.77392578125	145.575769632457	-0.00380401611328125	0.77301025390625
318	0.7763671875	145.600169632395	-0.00385406494140625	0.77545166015625
319	0.77880859375	145.624569632333	-0.00375274658203125	0.77789306640625
320	0.78125	145.648969632272	-0.00383697509765625	0.7806396484375
321	0.78369140625	145.67336963221	-0.0037347412109375	0.78277587890625
322	0.7861328125	145.697769632148	-0.0037921142578125	0.78521728515625
323	0.78857421875	145.722169632087	-0.00374542236328125	0.7879638671875
324	0.791015625	145.746569632025	-0.00372650146484375	0.78948974609375
325	0.79345703125	145.770969631964	-0.00375762939453125	0.79254150390625
326	0.7958984375	145.795369631902	-0.003671875	0.7952880859375
327	0.79833984375	145.81976963184	-0.0037506103515625	0.79742431640625
328	0.80078125	145.844169631779	-0.00363800048828125	0.799560546875
329	0.80322265625	145.868569631717	-0.00370574951171875	0.80230712890625
330	0.8056640625	145.892969631656	-0.003636474609375	0.8050537109375
331	0.80810546875	145.917369631594	-0.0036431884765625	0.8074951171875
332	0.810546875	145.941769631532	-0.0036505126953125	0.809326171875
333	0.81298828125	145.966169631471	-0.00357574462890625	0.8123779296875
334	0.8154296875	145.990569631409	-0.0036431884765625	0.81451416015625
335	0.81787109375	146.014969631348	-0.0035308837890625	0.816650390625
336	0.8203125	146.039369631286	-0.0036090087890625	0.819091796875
337	0.82275390625	146.063769631224	-0.0035198974609375	0.8209228515625
338	0.8251953125	146.088169631163	-0.0035443115234375	0.82489013671875
339	0.82763671875	146.112569631101	-0.00352447509765625	0.82672119140625
340	0.830078125	146.13696963104	-0.003472900390625	0.82916259765625
341	0.83251953125	146.161369630978	-0.0035260009765625	0.831298828125
342	0.8349609375	146.185769630916	-0.0034112548828125	0.83404541015625
343	0.83740234375	146.210169630855	-0.00349151611328125	0.836181640625
344	0.83984375	146.234569630793	-0.00338714599609375	0.8392333984375
345	0.84228515625	146.258969630732	-0.00343353271484375	0.84136962890625
346	0.8447265625	146.28336963067	-0.003387451171875	0.84381103515625
347	0.84716796875	146.307769630608	-0.00335235595703125	0.84625244140625
348	0.849609375	146.332169630547	-0.0033831787109375	0.848388671875
349	0.85205078125	146.356569630485	-0.00328460693359375	0.85113525390625
350	0.8544921875	146.380969630424	-0.0033587646484375	0.853271484375
351	0.85693359375	146.405369630362	-0.00324005126953125	0.85601806640625
352	0.859375	146.4297696303	-0.0032940673828125	0.85906982421875
353	0.86181640625	146.454169630239	-0.0032232666015625	0.86090087890625
354	0.8642578125	146.478569630177	-0.00321380615234375	0.86334228515625
355	0.86669921875	146.502969630116	-0.00322052001953125	0.86578369140625
356	0.869140625	146.527369630054	-0.0031298828125	0.867919921875
357	0.87158203125	146.551769629992	-0.00319000244140625	0.8709716796875
358	0.8740234375	146.576169629931	-0.0030731201171875	0.8734130859375
359	0.87646484375	146.600569629869	-0.0031378173828125	0.87554931640625
360	0.87890625	146.624969629808	-0.003045654296875	0.87799072265625
361	0.88134765625	146.649369629746	-0.00305023193359375	0.88043212890625
362	0.8837890625	146.673769629684	-0.003031005859375	0.88287353515625
363	0.88623046875	146.698169629623	-0.0029632568359375	0.885009765625
364	0.888671875	146.722569629561	-0.00300872802734375	0.8880615234375
365	0.89111328125	146.7469696295	-0.0028857421875	0.889892578125
366	0.8935546875	146.771369629438	-0.00294891357421875	0.8929443359375
367	0.89599609375	146.795769629376	-0.0028424072265625	0.894775390625
368	0.8984375	146.820169629315	-0.0028680419921875	0.89752197265625
369	0.90087890625	146.844569629253	-0.002821044921875	0.9002685546875
370	0.9033203125	146.868969629191	-0.0027642822265625	0.9027099609375
371	0.90576171875	146.89336962913	-0.00278900146484375	0.9051513671875
372	0.908203125	146.917769629068	-0.00268096923828125	0.90728759765625
373	0.91064453125	146.942169629007	-0.00273834228515625	0.90972900390625
374	0.9130859375	146.966569628945	-0.0026171875	0.911865234375
375	0.91552734375	146.990969628883	-0.0026458740234375	0.91461181640625
376	0.91796875	147.015369628822	-0.00257232666015625	0.91705322265625
377	0.92041015625	147.03976962876	-0.002540283203125	0.91949462890625
378	0.9228515625	147.064169628699	-0.0025372314453125	0.9222412109375
379	0.92529296875	147.088569628637	-0.00242645263671875	0.924072265625
380	0.927734375	147.112969628575	-0.002462158203125	0.92681884765625
381	0.93017578125	147.137369628514	-0.0023382568359375	0.928955078125
382	0.9326171875	147.161769628452	-0.00237701416015625	0.93170166015625
383	0.93505859375	147.186169628391	-0.0022808837890625	0.93414306640625
384	0.9375	147.210569628329	-0.00225006103515625	0.93658447265625
385	0.93994140625	147.234969628267	-0.0022186279296875	0.9393310546875
386	0.9423828125	147.259369628206	-0.0021307373046875	0.941162109375
387	0.94482421875	147.283769628144	-0.00215301513671875	0.94390869140625
388	0.947265625	147.308169628083	-0.0020172119140625	0.94635009765625
389	0.94970703125	147.332569628021	-0.0020428466796875	0.9490966796875
390	0.9521484375	147.356969627959	-0.00192840576171875	0.95123291015625
391	0.95458984375	147.381369627898	-0.00191925048828125	0.953369140625
392	0.95703125	147.405769627836	-0.0018597412109375	0.95611572265625
393	0.95947265625	147.430169627775	-0.0017694091796875	0.958251953125
394	0.9619140625	147.454569627713	-0.00176483154296875	0.9613037109375
395	0.96435546875	147.478969627651	-0.00164276123046875	0.96343994140625
396	0.966796875	147.50336962759	-0.00166290283203125	0.96588134765625
397	0.96923828125	147.527769627528	-0.001529541015625	0.968017578125
398	0.9716796875	147.552169627467	-0.00151275634765625	0.970458984375
399	0.97412109375	147.576569627405	-0.00142486572265625	0.972900390625
400	0.9765625	147.600969627343	-0.001361083984375	0.97564697265625
401	0.97900390625	147.625369627282	-0.00133056640625	0.97808837890625
402	0.9814453125	147.64976962722	-0.0011932373046875	0.9808349609375
403	0.98388671875	147.674169627159	-0.0011895751953125	0.98297119140625
404	0.986328125	147.698569627097	-0.001053466796875	0.9857177734375
405	0.98876953125	147.722969627035	-0.00104339599609375	0.9881591796875
406	0.9912109375	147.747369626974	-0.0009307861328125	0.99029541015625
407	0.99365234375	147.771769626912	-0.0008544921875	0.99273681640625
408	0.99609375	147.796169626851	-0.00079254150390625	0.99609375
409	0.99853515625	147.820569626789	-0.00068206787109375	0.99761962890625
410	1.0009765625	147.844969626727	-0.0006597900390625	1.00067138671875
411	1.00341796875	147.869369626666	-0.00050628662109375	1.00250244140625
412	1.005859375	147.893769626604	-0.00047454833984375	1.00494384765625
413	1.00830078125	147.918169626543	-0.000346527099609375	1.007080078125
414	1.0107421875	147.942569626481	-0.0002904052734375	1.00982666015625
415	1.01318359375	147.966969626419	-0.00020428466796875	1.011962890625
416	1.015625	147.991369626358	-7.58056640625E-05	1.0150146484375
417	1.01806640625	148.015769626296	-2.3956298828125E-05	1.01715087890625
418	1.0205078125	148.040169626235	0.000116363525390625	1.019287109375
419	1.02294921875	148.064569626173	0.000149932861328125	1.021728515625
420	1.025390625	148.088969626111	0.00029876708984375	1.02447509765625
421	1.02783203125	148.11336962605	0.000374542236328125	1.02691650390625
422	1.0302734375	148.137769625988	0.000487060546875	1.02935791015625
423	1.03271484375	148.162169625926	0.00058868408203125	1.03179931640625
424	1.03515625	148.186569625865	0.00065887451171875	1.0345458984375
425	1.03759765625	148.210969625803	0.0008221435546875	1.03668212890625
426	1.0400390625	148.235369625742	0.0008807373046875	1.03912353515625
427	1.04248046875	148.25976962568	0.00103271484375	1.041259765625
428	1.044921875	148.284169625618	0.00109344482421875	1.0443115234375
429	1.04736328125	148.308569625557	0.0012261962890625	1.04644775390625
430	1.0498046875	148.332969625495	0.00134857177734375	1.0491943359375
431	1.05224609375	148.357369625434	0.00144744873046875	1.0516357421875
432	1.0546875	148.381769625372	0.00158172607421875	1.05377197265625
433	1.05712890625	148.40616962531	0.00165069580078125	1.0565185546875
434	1.0595703125	148.430569625249	0.001824951171875	1.0589599609375
435	1.06201171875	148.454969625187	0.00191009521484375	1.06048583984375
436	1.064453125	148.479369625126	0.00206024169921875	1.06353759765625
437	1.06689453125	148.503769625064	0.0021539306640625	1.065673828125
438	1.0693359375	148.528169625002	0.0022705078125	1.068115234375
439	1.07177734375	148.552569624941	0.00243438720703125	1.070556640625
440	1.07421875	148.576969624879	0.002528076171875	1.0736083984375
441	1.07666015625	148.601369624818	0.00268463134765625	1.07574462890625
442	1.0791015625	148.625769624756	0.00276458740234375	1.07818603515625
443	1.08154296875	148.650169624694	0.0029315185546875	1.0809326171875
444	1.083984375	148.674569624633	0.0030523681640625	1.082763671875
445	1.08642578125	148.698969624571	0.00319122314453125	1.0858154296875
446	1.0888671875	148.72336962451	0.00331695556640625	1.0882568359375
447	1.09130859375	148.747769624448	0.00342132568359375	1.09039306640625
448	1.09375	148.772169624386	0.00360198974609375	1.09344482421875
449	1.09619140625	148.796569624325	0.003702392578125	1.094970703125
450	1.0986328125	148.820969624263	0.00385833740234375	1.097412109375
451	1.10107421875	148.845369624202	0.003948974609375	1.10015869140625
452	1.103515625	148.86976962414	0.0040789794921875	1.1029052734375
453	1.10595703125	148.894169624078	0.0042059326171875	1.1053466796875
454	1.1083984375	148.918569624017	0.0043023681640625	1.107177734375
455	1.11083984375	148.942969623955	0.004404296875	1.1102294921875
456	1.11328125	148.967369623894	0.0044708251953125	1.112060546875
457	1.11572265625	148.991769623832	0.00457733154296875	1.114501953125
458	1.1181640625	149.01616962377	0.00464324951171875	1.1175537109375
459	1.12060546875	149.040569623709	0.00472137451171875	1.11968994140625
460	1.123046875	149.064969623647	0.004774169921875	1.12213134765625
461	1.12548828125	149.089369623586	0.00483001708984375	1.124267578125
462	1.1279296875	149.113769623524	0.00489898681640625	1.12640380859375
463	1.13037109375	149.138169623462	0.004942626953125	1.12945556640625
464	1.1328125	149.162569623401	0.00499603271484375	1.131591796875
465	1.13525390625	149.186969623339	0.005030517578125	1.134033203125
466	1.1376953125	149.211369623278	0.00508087158203125	1.1370849609375
467	1.14013671875	149.235769623216	0.0051220703125	1.13922119140625
468	1.142578125	149.260169623154	0.00516143798828125	1.14166259765625
469	1.14501953125	149.284569623093	0.00519561767578125	1.143798828125
470	1.1474609375	149.308969623031	0.00522613525390625	1.1468505859375
471	1.14990234375	149.333369622969	0.00526885986328125	1.1492919921875
472	1.15234375	149.357769622908	0.00529754638671875	1.1517333984375
473	1.15478515625	149.382169622846	0.00533233642578125	1.15386962890625
474	1.1572265625	149.406569622785	0.0053564453125	1.15631103515625
475	1.15966796875	149.430969622723	0.00538665771484375	1.15875244140625
476	1.162109375	149.455369622661	0.00541839599609375	1.16119384765625
477	1.16455078125	149.4797696226	0.00544403076171875	1.163330078125
478	1.1669921875	149.504169622538	0.00547027587890625	1.1663818359375
479	1.16943359375	149.528569622477	0.00549102783203125	1.16851806640625
480	1.171875	149.552969622415	0.00552093505859375	1.170654296875
481	1.17431640625	149.577369622353	0.0055438232421875	1.17279052734375
482	1.1767578125	149.601769622292	0.00556915283203125	1.17645263671875
483	1.17919921875	149.62616962223	0.0055889892578125	1.17767333984375
484	1.181640625	149.650569622169	0.00561004638671875	1.1810302734375
485	1.18408203125	149.674969622107	0.00563629150390625	1.18316650390625
486	1.1865234375	149.699369622045	0.005655517578125	1.185302734375
487	1.18896484375	149.723769621984	0.005677490234375	1.1883544921875
488	1.19140625	149.748169621922	0.0056939697265625	1.18988037109375
489	1.19384765625	149.772569621861	0.00571563720703125	1.19232177734375
490	1.1962890625	149.796969621799	0.00573638916015625	1.195068359375
491	1.19873046875	149.821369621737	0.005755615234375	1.1981201171875
492	1.201171875	149.845769621676	0.005772705078125	1.199951171875
493	1.19873046875	149.870169621614	0.00575225830078125	1.197509765625
494	1.1962890625	149.894569621553	0.0057373046875	1.19537353515625
495	1.19384765625	149.918969621491	0.00571685791015625	1.19293212890625
496	1.19140625	149.943369621429	0.0056988525390625	1.1907958984375
497	1.18896484375	149.967769621368	0.00567535400390625	1.18804931640625
498	1.1865234375	149.992169621306	0.0056549072265625	1.18560791015625
499	1.18408203125	150.016569621245	0.00563690185546875	1.182861328125
500	1.181640625	150.040969621183	0.00561431884765625	1.18011474609375
501	1.17919921875	150.065369621121	0.0055926513671875	1.177978515625
502	1.1767578125	150.08976962106	0.00556549072265625	1.17584228515625
503	1.17431640625	150.114169620998	0.00554656982421875	1.17340087890625
504	1.171875	150.138569620937	0.0055224609375	1.17095947265625
505	1.16943359375	150.162969620875	0.00549957275390625	1.1688232421875
506	1.1669921875	150.187369620813	0.00547088623046875	1.165771484375
507	1.16455078125	150.211769620752	0.005443115234375	1.16363525390625
508	1.162109375	150.23616962069	0.00542236328125	1.1614990234375
509	1.15966796875	150.260569620629	0.00539154052734375	1.158447265625
510	1.1572265625	150.284969620567	0.0053656005859375	1.156005859375
511	1.15478515625	150.309369620505	0.00532928466796875	1.15325927734375
512	1.15234375	150.333769620444	0.005301513671875	1.151123046875
513	1.14990234375	150.358169620382	0.0052716064453125	1.14898681640625
514	1.1474609375	150.382569620321	0.005238037109375	1.146240234375
515	1.14501953125	150.406969620259	0.00520233154296875	1.14349365234375
516	1.142578125	150.431369620197	0.00515869140625	1.14166259765625
517	1.14013671875	150.455769620136	0.00513153076171875	1.138916015625
518	1.1376953125	150.480169620074	0.005086669921875	1.136474609375
519	1.13525390625	150.504569620012	0.00505035400390625	1.13433837890625
520	1.1328125	150.528969619951	0.00499664306640625	1.13189697265625
521	1.13037109375	150.553369619889	0.00494873046875	1.12884521484375
522	1.1279296875	150.577769619828	0.004908447265625	1.1273193359375
523	1.12548828125	150.602169619766	0.00484771728515625	1.12396240234375
524	1.123046875	150.626569619704	0.0047955322265625	1.12213134765625
525	1.12060546875	150.650969619643	0.00471649169921875	1.11968994140625
526	1.1181640625	150.675369619581	0.0046649169921875	1.11724853515625
527	1.11572265625	150.69976961952	0.00458770751953125	1.11480712890625
528	1.11328125	150.724169619458	0.00451507568359375	1.11236572265625
529	1.11083984375	150.748569619396	0.004420166015625	1.109619140625
530	1.1083984375	150.772969619335	0.00430999755859375	1.10748291015625
531	1.10595703125	150.797369619273	0.0042413330078125	1.104736328125
532	1.103515625	150.821769619212	0.0041070556640625	1.10260009765625
533	1.10107421875	150.84616961915	0.0040130615234375	1.099853515625
534	1.0986328125	150.870569619088	0.00385528564453125	1.09710693359375
535	1.09619140625	150.894969619027	0.00374298095703125	1.09527587890625
536	1.09375	150.919369618965	0.00362548828125	1.09222412109375
537	1.09130859375	150.943769618904	0.00348480224609375	1.09039306640625
538	1.0888671875	150.968169618842	0.00336273193359375	1.08795166015625
539	1.08642578125	150.99256961878	0.00319061279296875	1.08551025390625
540	1.083984375	151.016969618719	0.00311126708984375	1.0833740234375
541	1.08154296875	151.041369618657	0.00295257568359375	1.0809326171875
542	1.0791015625	151.065769618596	0.0028497314453125	1.07818603515625
543	1.07666015625	151.090169618534	0.00269287109375	1.0760498046875
544	1.07421875	151.114569618472	0.0025592041015625	1.07330322265625
545	1.07177734375	151.138969618411	0.002470703125	1.070556640625
546	1.0693359375	151.163369618349	0.00231536865234375	1.06842041015625
547	1.06689453125	151.187769618288	0.0022247314453125	1.065673828125
548	1.064453125	151.212169618226	0.002049560546875	1.063232421875
549	1.06201171875	151.236569618164	0.00196990966796875	1.060791015625
550	1.0595703125	151.260969618103	0.0018377685546875	1.05865478515625
551	1.05712890625	151.285369618041	0.001727294921875	1.05621337890625
552	1.0546875	151.30976961798	0.00160919189453125	1.0540771484375
553	1.05224609375	151.334169617918	0.001458740234375	1.05133056640625
554	1.0498046875	151.358569617856	0.00140533447265625	1.04888916015625
555	1.04736328125	151.382969617795	0.00124725341796875	1.04644775390625
556	1.044921875	151.407369617733	0.00117950439453125	1.04400634765625
557	1.04248046875	151.431769617672	0.001025390625	1.04156494140625
558	1.0400390625	151.45616961761	0.0009344482421875	1.03912353515625
559	1.03759765625	151.480569617548	0.0008441162109375	1.03668212890625
560	1.03515625	151.504969617487	0.00071533203125	1.03424072265625
561	1.03271484375	151.529369617425	0.0006427001953125	1.0321044921875
562	1.0302734375	151.553769617364	0.0004833984375	1.02874755859375
563	1.02783203125	151.578169617302	0.000444580078125	1.02752685546875
564	1.025390625	151.60256961724	0.000305816650390625	1.02447509765625
565	1.02294921875	151.626969617179	0.0002398681640625	1.02203369140625
566	1.0205078125	151.651369617117	0.0001240234375	1.01959228515625
567	1.01806640625	151.675769617055	9.613037109375E-06	1.0174560546875
568	1.015625	151.700169616994	-3.1951904296875E-05	1.014404296875
569	1.01318359375	151.724569616932	-0.000174468994140625	1.01226806640625
570	1.0107421875	151.748969616871	-0.00020928955078125	1.0101318359375
571	1.00830078125	151.773369616809	-0.0003616943359375	1.0076904296875
572	1.005859375	151.797769616747	-0.0003995361328125	1.00494384765625
573	1.00341796875	151.822169616686	-0.0004986572265625	1.002197265625
574	1.0009765625	151.846569616624	-0.00058135986328125	1.00006103515625
575	0.99853515625	151.870969616563	-0.00064727783203125	0.99761962890625
576	0.99609375	151.895369616501	-0.000777587890625	0.994873046875
577	0.99365234375	151.919769616439	-0.000782470703125	0.99273681640625
578	0.9912109375	151.944169616378	-0.0009228515625	0.9906005859375
579	0.98876953125	151.968569616316	-0.00093963623046875	0.98785400390625
580	0.986328125	151.992969616255	-0.0010614013671875	0.98541259765625
581	0.98388671875	152.017369616193	-0.00111846923828125	0.9832763671875
582	0.9814453125	152.041769616131	-0.00116607666015625	0.98052978515625
583	0.97900390625	152.06616961607	-0.00127349853515625	0.97808837890625
584	0.9765625	152.090569616008	-0.00128631591796875	0.975341796875
585	0.97412109375	152.114969615947	-0.00142852783203125	0.97320556640625
586	0.9716796875	152.139369615885	-0.00141632080078125	0.97137451171875
587	0.96923828125	152.163769615823	-0.00153106689453125	0.968017578125
588	0.966796875	152.188169615762	-0.00155670166015625	0.965576171875
589	0.96435546875	152.2125696157	-0.00162811279296875	0.96405029296875
590	0.9619140625	152.236969615639	-0.00171661376953125	0.960693359375
591	0.95947265625	152.261369615577	-0.00170928955078125	0.95855712890625
592	0.95703125	152.285769615515	-0.00183624267578125	0.95672607421875
593	0.95458984375	152.310169615454	-0.00181304931640625	0.95367431640625
594	0.9521484375	152.334569615392	-0.0019427490234375	0.950927734375
595	0.94970703125	152.358969615331	-0.0019403076171875	0.94879150390625
596	0.947265625	152.383369615269	-0.0020086669921875	0.9466552734375
597	0.94482421875	152.407769615207	-0.00206878662109375	0.9442138671875
598	0.9423828125	152.432169615146	-0.00207855224609375	0.94146728515625
599	0.93994140625	152.456569615084	-0.00219451904296875	0.9393310546875
600	0.9375	152.480969615023	-0.00214874267578125	0.93658447265625
601	0.93505859375	152.505369614961	-0.0022772216796875	0.9344482421875
602	0.9326171875	152.529769614899	-0.0022509765625	0.93170166015625
603	0.93017578125	152.554169614838	-0.00233734130859375	0.92864990234375
604	0.927734375	152.578569614776	-0.00237274169921875	0.9271240234375
605	0.92529296875	152.602969614715	-0.00238128662109375	0.9246826171875
606	0.9228515625	152.627369614653	-0.002476806640625	0.921630859375
607	0.92041015625	152.651769614591	-0.00243743896484375	0.919189453125
608	0.91796875	152.67616961453	-0.00256805419921875	0.91705322265625
609	0.91552734375	152.700569614468	-0.00251220703125	0.91522216796875
610	0.9130859375	152.724969614407	-0.00260528564453125	0.911865234375
611	0.91064453125	152.749369614345	-0.002611083984375	0.90972900390625
612	0.908203125	152.773769614283	-0.00263702392578125	0.90728759765625
613	0.90576171875	152.798169614222	-0.00270965576171875	0.90484619140625
614	0.9033203125	152.82256961416	-0.0026593017578125	0.90240478515625
615	0.90087890625	152.846969614098	-0.0027655029296875	0.9002685546875
616	0.8984375	152.871369614037	-0.00272125244140625	0.897216796875
617	0.89599609375	152.895769613975	-0.00282958984375	0.89508056640625
618	0.8935546875	152.920169613914	-0.00282012939453125	0.8929443359375
619	0.89111328125	152.944569613852	-0.0028607177734375	0.89019775390625
620	0.888671875	152.96896961379	-0.00291290283203125	0.88775634765625
621	0.88623046875	152.993369613729	-0.00289276123046875	0.88531494140625
622	0.8837890625	153.017769613667	-0.003001708984375	0.88348388671875
623	0.88134765625	153.042169613606	-0.0029296875	0.88043212890625
624	0.87890625	153.066569613544	-0.00303955078125	0.8782958984375
625	0.87646484375	153.090969613482	-0.0030023193359375	0.8758544921875
626	0.8740234375	153.115369613421	-0.00306671142578125	0.87310791015625
627	0.87158203125	153.139769613359	-0.003094482421875	0.87066650390625
628	0.869140625	153.164169613298	-0.00307464599609375	0.867919921875
629	0.86669921875	153.188569613236	-0.003172607421875	0.86578369140625
630	0.8642578125	153.212969613174	-0.00310546875	0.86334228515625
631	0.86181640625	153.237369613113	-0.003231201171875	0.86090087890625
632	0.859375	153.261769613051	-0.0031707763671875	0.8587646484375
633	0.85693359375	153.28616961299	-0.0032470703125	0.85662841796875
634	0.8544921875	153.310569612928	-0.0032550048828125	0.85357666015625
635	0.85205078125	153.334969612866	-0.0032598876953125	0.8514404296875
636	0.849609375	153.359369612805	-0.00333587646484375	0.84869384765625
637	0.84716796875	153.383769612743	-0.00327056884765625	0.84686279296875
638	0.8447265625	153.408169612682	-0.00338775634765625	0.8441162109375
639	0.84228515625	153.43256961262	-0.003314208984375	0.84136962890625
640	0.83984375	153.456969612558	-0.00340850830078125	0.83892822265625
641	0.83740234375	153.481369612497	-0.003388671875	0.836181640625
642	0.8349609375	153.505769612435	-0.0034075927734375	0.8343505859375
643	0.83251953125	153.530169612374	-0.00346405029296875	0.8319091796875
644	0.830078125	153.554569612312	-0.00341400146484375	0.828857421875
645	0.82763671875	153.57896961225	-0.00352508544921875	0.8270263671875
646	0.8251953125	153.603369612189	-0.003443603515625	0.823974609375
647	0.82275390625	153.627769612127	-0.00354766845703125	0.8221435546875
648	0.8203125	153.652169612066	-0.0035064697265625	0.81939697265625
649	0.81787109375	153.676569612004	-0.0035504150390625	0.81695556640625
650	0.8154296875	153.700969611942	-0.003582763671875	0.81451416015625
651	0.81298828125	153.725369611881	-0.003544921875	0.81207275390625
652	0.810546875	153.749769611819	-0.00364166259765625	0.8099365234375
653	0.80810546875	153.774169611758	-0.0035614013671875	0.8074951171875
654	0.8056640625	153.798569611696	-0.00367340087890625	0.80474853515625
655	0.80322265625	153.822969611634	-0.00361114501953125	0.802001953125
656	0.80078125	153.847369611573	-0.003670654296875	0.79986572265625
657	0.79833984375	153.871769611511	-0.003677978515625	0.7977294921875
658	0.7958984375	153.89616961145	-0.00366363525390625	0.79498291015625
659	0.79345703125	153.920569611388	-0.00374603271484375	0.7928466796875
660	0.791015625	153.944969611326	-0.0036669921875	0.79010009765625
661	0.78857421875	153.969369611265	-0.003775634765625	0.78826904296875
662	0.7861328125	153.993769611203	-0.003702392578125	0.78460693359375
663	0.78369140625	154.018169611142	-0.003782958984375	0.7830810546875
664	0.78125	154.04256961108	-0.00376708984375	0.78033447265625
665	0.77880859375	154.066969611018	-0.00376922607421875	0.777587890625
666	0.7763671875	154.091369610957	-0.00383087158203125	0.77606201171875
667	0.77392578125	154.115769610895	-0.00376708984375	0.772705078125
668	0.771484375	154.140169610833	-0.00387176513671875	0.77056884765625
669	0.76904296875	154.164569610772	-0.00378936767578125	0.767822265625
670	0.7666015625	154.18896961071	-0.00387939453125	0.76568603515625
671	0.76416015625	154.213369610649	-0.0038427734375	0.7635498046875
672	0.76171875	154.237769610587	-0.003868408203125	0.760498046875
673	0.75927734375	154.262169610525	-0.00390655517578125	0.758056640625
674	0.7568359375	154.286569610464	-0.003853759765625	0.7562255859375
675	0.75439453125	154.310969610402	-0.00394927978515625	0.75347900390625
676	0.751953125	154.335369610341	-0.0038665771484375	0.75103759765625
677	0.74951171875	154.359769610279	-0.0039654541015625	0.7489013671875
678	0.7470703125	154.384169610217	-0.003909912109375	0.747528076171875
679	0.74462890625	154.408569610156	-0.00394989013671875	0.74505615234375
680	0.7421875	154.432969610094	-0.00396820068359375	0.74273681640625
681	0.73974609375	154.457369610033	-0.00393524169921875	0.74017333984375
682	0.7373046875	154.481769609971	-0.004017333984375	0.737823486328125
683	0.73486328125	154.506169609909	-0.0039337158203125	0.73529052734375
684	0.732421875	154.530569609848	-0.004034423828125	0.73297119140625
685	0.72998046875	154.554969609786	-0.00396820068359375	0.73046875
686	0.7275390625	154.579369609725	-0.00402740478515625	0.727996826171875
687	0.72509765625	154.603769609663	-0.004022216796875	0.725677490234375
688	0.72265625	154.628169609601	-0.00400665283203125	0.72314453125
689	0.72021484375	154.65256960954	-0.004073486328125	0.720733642578125
690	0.7177734375	154.676969609478	-0.00400177001953125	0.71820068359375
691	0.71533203125	154.701369609417	-0.00410125732421875	0.715850830078125
692	0.712890625	154.725769609355	-0.0040228271484375	0.713348388671875
693	0.71044921875	154.750169609293	-0.00409393310546875	0.710968017578125
694	0.7080078125	154.774569609232	-0.00406768798828125	0.70855712890625
695	0.70556640625	154.79896960917	-0.0040740966796875	0.706085205078125
696	0.703125	154.823369609109	-0.00412017822265625	0.70367431640625
697	0.70068359375	154.847769609047	-0.00405914306640625	0.701141357421875
698	0.6982421875	154.872169608985	-0.00415130615234375	0.6988525390625
699	0.69580078125	154.896569608924	-0.0040728759765625	0.696319580078125
700	0.693359375	154.920969608862	-0.0041558837890625	0.69384765625
701	0.69091796875	154.945369608801	-0.00411224365234375	0.691497802734375
702	0.6884765625	154.969769608739	-0.004134521484375	0.688995361328125
703	0.68603515625	154.994169608677	-0.0041607666015625	0.686676025390625
704	0.68359375	155.018569608616	-0.0041162109375	0.68414306640625
705	0.68115234375	155.042969608554	-0.00419830322265625	0.68182373046875
706	0.6787109375	155.067369608493	-0.00411590576171875	0.679229736328125
707	0.67626953125	155.091769608431	-0.00420379638671875	0.676849365234375
708	0.673828125	155.116169608369	-0.00414703369140625	0.674407958984375
709	0.67138671875	155.140569608308	-0.004188232421875	0.671966552734375
710	0.6689453125	155.164969608246	-0.00419342041015625	0.66961669921875
711	0.66650390625	155.189369608185	-0.00416290283203125	0.66705322265625
712	0.6640625	155.213769608123	-0.00423065185546875	0.664764404296875
713	0.66162109375	155.238169608061	-0.00415496826171875	0.662139892578125
714	0.6591796875	155.262569608	-0.00424407958984375	0.659820556640625
715	0.65673828125	155.286969607938	-0.0041748046875	0.65728759765625
716	0.654296875	155.311369607876	-0.00422943115234375	0.654937744140625
717	0.65185546875	155.335769607815	-0.0042156982421875	0.652496337890625
718	0.6494140625	155.360169607753	-0.00420623779296875	0.64996337890625
719	0.64697265625	155.384569607692	-0.00425872802734375	0.647674560546875
720	0.64453125	155.40896960763	-0.00419189453125	0.645111083984375
721	0.64208984375	155.433369607568	-0.004278564453125	0.642822265625
722	0.6396484375	155.457769607507	-0.0042041015625	0.640289306640625
723	0.63720703125	155.482169607445	-0.00427276611328125	0.637847900390625
724	0.634765625	155.506569607384	-0.0042413330078125	0.635467529296875
725	0.63232421875	155.530969607322	-0.00424896240234375	0.6329345703125
726	0.6298828125	155.55536960726	-0.004283447265625	0.630615234375
727	0.62744140625	155.579769607199	-0.0042303466796875	0.6280517578125
728	0.625	155.604169607137	-0.0043109130859375	0.625701904296875
729	0.62255859375	155.628569607076	-0.0042327880859375	0.623199462890625
730	0.6201171875	155.652969607014	-0.004310302734375	0.62078857421875
731	0.61767578125	155.677369606952	-0.00426361083984375	0.618316650390625
732	0.615234375	155.701769606891	-0.0042901611328125	0.6158447265625
733	0.61279296875	155.726169606829	-0.00430633544921875	0.613525390625
734	0.6103515625	155.750569606768	-0.00426605224609375	0.6109619140625
735	0.60791015625	155.774969606706	-0.0043359375	0.60870361328125
736	0.60546875	155.799369606644	-0.004261474609375	0.606048583984375
737	0.60302734375	155.823769606583	-0.004342041015625	0.603729248046875
738	0.6005859375	155.848169606521	-0.00428192138671875	0.601287841796875
739	0.59814453125	155.87256960646	-0.00432342529296875	0.59881591796875
740	0.595703125	155.896969606398	-0.00432098388671875	0.59637451171875
741	0.59326171875	155.921369606336	-0.00429962158203125	0.59393310546875
742	0.5908203125	155.945769606275	-0.00435516357421875	0.591583251953125
743	0.58837890625	155.970169606213	-0.004285888671875	0.589019775390625
744	0.5859375	155.994569606152	-0.00436737060546875	0.586639404296875
745	0.58349609375	156.01896960609	-0.00429931640625	0.5841064453125
746	0.5810546875	156.043369606028	-0.00435455322265625	0.5816650390625
747	0.57861328125	156.067769605967	-0.0043341064453125	0.579315185546875
748	0.576171875	156.092169605905	-0.00432830810546875	0.5767822265625
749	0.57373046875	156.116569605844	-0.00436981201171875	0.574462890625
750	0.5712890625	156.140969605782	-0.004310302734375	0.57196044921875
751	0.56884765625	156.16536960572	-0.004388427734375	0.569580078125
752	0.56640625	156.189769605659	-0.00431488037109375	0.56707763671875
753	0.56396484375	156.214169605597	-0.00437957763671875	0.564666748046875
754	0.5615234375	156.238569605536	-0.00434356689453125	0.562255859375
755	0.55908203125	156.262969605474	-0.00435516357421875	0.55975341796875
756	0.556640625	156.287369605412	-0.0043804931640625	0.557403564453125
757	0.55419921875	156.311769605351	-0.0043316650390625	0.554901123046875
758	0.5517578125	156.336169605289	-0.00440216064453125	0.55255126953125
759	0.54931640625	156.360569605228	-0.00432861328125	0.54998779296875
760	0.546875	156.384969605166	-0.00440185546875	0.547576904296875
761	0.54443359375	156.409369605104	-0.0043524169921875	0.545166015625
762	0.5419921875	156.433769605043	-0.0043792724609375	0.54266357421875
763	0.53955078125	156.458169604981	-0.00438751220703125	0.540313720703125
764	0.537109375	156.482569604919	-0.00435546875	0.537811279296875
765	0.53466796875	156.506969604858	-0.00441619873046875	0.53546142578125
766	0.5322265625	156.531369604796	-0.004345703125	0.53289794921875
767	0.52978515625	156.555769604735	-0.00442169189453125	0.53057861328125
768	0.52734375	156.580169604673	-0.0043621826171875	0.528045654296875
769	0.52490234375	156.604569604611	-0.0044049072265625	0.525634765625
770	0.5224609375	156.62896960455	-0.004395751953125	0.523223876953125
771	0.52001953125	156.653369604488	-0.00437896728515625	0.5206298828125
772	0.517578125	156.677769604427	-0.0044268798828125	0.51837158203125
773	0.51513671875	156.702169604365	-0.00436431884765625	0.515838623046875
774	0.5126953125	156.726569604303	-0.00444000244140625	0.513458251953125
775	0.51025390625	156.750969604242	-0.00437286376953125	0.510986328125
776	0.5078125	156.77536960418	-0.00442779541015625	0.50848388671875
777	0.50537109375	156.799769604119	-0.00440277099609375	0.506103515625
778	0.5029296875	156.824169604057	-0.004403076171875	0.503631591796875
779	0.50048828125	156.848569603995	-0.0044366455078125	0.501312255859375
780	0.498046875	156.872969603934	-0.00438140869140625	0.498779296875
781	0.49560546875	156.897369603872	-0.00445343017578125	0.49639892578125
782	0.4931640625	156.921769603811	-0.00438323974609375	0.493865966796875
783	0.49072265625	156.946169603749	-0.00444793701171875	0.491485595703125
784	0.48828125	156.970569603687	-0.00440826416015625	0.489044189453125
785	0.48583984375	156.994969603626	-0.00442413330078125	0.486572265625
786	0.4833984375	157.019369603564	-0.00444091796875	0.48419189453125
787	0.48095703125	157.043769603503	-0.0044000244140625	0.481658935546875
788	0.478515625	157.068169603441	-0.0044647216796875	0.479339599609375
789	0.47607421875	157.092569603379	-0.0043939208984375	0.476837158203125
790	0.4736328125	157.116969603318	-0.0044635009765625	0.474395751953125
791	0.47119140625	157.141369603256	-0.00441162109375	0.471954345703125
792	0.46875	157.165769603195	-0.00444366455078125	0.469451904296875
793	0.46630859375	157.190169603133	-0.00444366455078125	0.467071533203125
794	0.4638671875	157.214569603071	-0.0044158935546875	0.464569091796875
795	0.46142578125	157.23896960301	-0.0044708251953125	0.4622802734375
796	0.458984375	157.263369602948	-0.0044036865234375	0.459716796875
797	0.45654296875	157.287769602887	-0.00447662353515625	0.457305908203125
798	0.4541015625	157.312169602825	-0.004415283203125	0.454864501953125
799	0.45166015625	157.336569602763	-0.004459228515625	0.45245361328125
800	0.44921875	157.360969602702	-0.00444488525390625	0.450042724609375
801	0.44677734375	157.38536960264	-0.00443328857421875	0.447509765625
802	0.4443359375	157.409769602579	-0.00447540283203125	0.445098876953125
803	0.44189453125	157.434169602517	-0.00441497802734375	0.442626953125
804	0.439453125	157.458569602455	-0.00448638916015625	0.440277099609375
805	0.43701171875	157.482969602394	-0.0044195556640625	0.437713623046875
806	0.4345703125	157.507369602332	-0.00447540283203125	0.435394287109375
807	0.43212890625	157.531769602271	-0.00444580078125	0.43292236328125
808	0.4296875	157.556169602209	-0.004449462890625	0.43048095703125
809	0.42724609375	157.580569602147	-0.00447662353515625	0.428070068359375
810	0.4248046875	157.604969602086	-0.004427490234375	0.425537109375
811	0.42236328125	157.629369602024	-0.00449493408203125	0.423248291015625
812	0.419921875	157.653769601962	-0.00442535400390625	0.42071533203125
813	0.41748046875	157.678169601901	-0.00448974609375	0.41827392578125
814	0.4150390625	157.702569601839	-0.00444732666015625	0.415863037109375
815	0.41259765625	157.726969601778	-0.004466552734375	0.413360595703125
816	0.41015625	157.751369601716	-0.0044793701171875	0.4110107421875
817	0.40771484375	157.775769601654	-0.00444244384765625	0.408447265625
818	0.4052734375	157.800169601593	-0.0045013427734375	0.406158447265625
819	0.40283203125	157.824569601531	-0.00443450927734375	0.403564453125
820	0.400390625	157.84896960147	-0.004503173828125	0.40118408203125
821	0.39794921875	157.873369601408	-0.00444976806640625	0.39874267578125
822	0.3955078125	157.897769601346	-0.00448394775390625	0.396240234375
823	0.39306640625	157.922169601285	-0.00447998046875	0.393890380859375
824	0.390625	157.946569601223	-0.0044573974609375	0.391387939453125
825	0.38818359375	157.970969601162	-0.0045074462890625	0.3890380859375
826	0.3857421875	157.9953696011	-0.004443359375	0.386505126953125
827	0.38330078125	158.019769601038	-0.00451385498046875	0.38409423828125
828	0.380859375	158.044169600977	-0.0044525146484375	0.381622314453125
829	0.37841796875	158.068569600915	-0.0044989013671875	0.379241943359375
830	0.3759765625	158.092969600854	-0.00448089599609375	0.37677001953125
831	0.37353515625	158.117369600792	-0.00447265625	0.374298095703125
832	0.37109375	158.14176960073	-0.00451019287109375	0.37188720703125
833	0.36865234375	158.166169600669	-0.00445526123046875	0.369415283203125
834	0.3662109375	158.190569600607	-0.00452362060546875	0.367034912109375
835	0.36376953125	158.214969600546	-0.004456787109375	0.36456298828125
836	0.361328125	158.239369600484	-0.004512939453125	0.36212158203125
837	0.35888671875	158.263769600422	-0.00448028564453125	0.359649658203125
838	0.3564453125	158.288169600361	-0.0044879150390625	0.35723876953125
839	0.35400390625	158.312569600299	-0.00451019287109375	0.3548583984375
840	0.3515625	158.336969600238	-0.00446441650390625	0.352294921875
841	0.34912109375	158.361369600176	-0.00452789306640625	0.350006103515625
842	0.3466796875	158.385769600114	-0.00446044921875	0.347442626953125
843	0.34423828125	158.410169600053	-0.00452301025390625	0.345062255859375
844	0.341796875	158.434569599991	-0.00447845458984375	0.34259033203125
845	0.33935546875	158.45896959993	-0.00449951171875	0.34014892578125
846	0.3369140625	158.483369599868	-0.00450775146484375	0.337799072265625
847	0.33447265625	158.507769599806	-0.00447479248046875	0.335205078125
848	0.33203125	158.532169599745	-0.00453125	0.332916259765625
849	0.32958984375	158.556569599683	-0.00446441650390625	0.33038330078125
850	0.3271484375	158.580969599622	-0.00453155517578125	0.3280029296875
851	0.32470703125	158.60536959956	-0.00447723388671875	0.32550048828125
852	0.322265625	158.629769599498	-0.00451202392578125	0.323089599609375
853	0.31982421875	158.654169599437	-0.004505615234375	0.3206787109375
854	0.3173828125	158.678569599375	-0.00448577880859375	0.31817626953125
855	0.31494140625	158.702969599314	-0.00453094482421875	0.315826416015625
856	0.3125	158.727369599252	-0.00447052001953125	0.313232421875
857	0.31005859375	158.75176959919	-0.00453887939453125	0.3109130859375
858	0.3076171875	158.776169599129	-0.00447723388671875	0.30841064453125
859	0.30517578125	158.800569599067	-0.00452392578125	0.305999755859375
860	0.302734375	158.824969599005	-0.0045025634765625	0.30364990234375
861	0.30029296875	158.849369598944	-0.0044976806640625	0.30108642578125
862	0.2978515625	158.873769598882	-0.0045318603515625	0.298736572265625
863	0.29541015625	158.898169598821	-0.004478759765625	0.29620361328125
864	0.29296875	158.922569598759	-0.0045440673828125	0.2938232421875
865	0.29052734375	158.946969598697	-0.00448028564453125	0.29132080078125
866	0.2880859375	158.971369598636	-0.0045361328125	0.2889404296875
867	0.28564453125	158.995769598574	-0.00450225830078125	0.2864990234375
868	0.283203125	159.020169598513	-0.00451080322265625	0.28399658203125
869	0.28076171875	159.044569598451	-0.00453155517578125	0.281646728515625
870	0.2783203125	159.068969598389	-0.0044891357421875	0.279083251953125
871	0.27587890625	159.093369598328	-0.0045501708984375	0.2767333984375
872	0.2734375	159.117769598266	-0.00448394775390625	0.274200439453125
873	0.27099609375	159.142169598205	-0.0045465087890625	0.2718505859375
874	0.2685546875	159.166569598143	-0.00450286865234375	0.269378662109375
875	0.26611328125	159.190969598081	-0.004525146484375	0.266937255859375
876	0.263671875	159.21536959802	-0.0045318603515625	0.26458740234375
877	0.26123046875	159.239769597958	-0.004500732421875	0.261993408203125
878	0.2587890625	159.264169597897	-0.0045538330078125	0.25970458984375
879	0.25634765625	159.288569597835	-0.0044903564453125	0.25714111328125
880	0.25390625	159.312969597773	-0.00455596923828125	0.2547607421875
881	0.25146484375	159.337369597712	-0.004501953125	0.252288818359375
882	0.2490234375	159.36176959765	-0.004537353515625	0.24981689453125
883	0.24658203125	159.386169597589	-0.00452972412109375	0.247467041015625
884	0.244140625	159.410569597527	-0.00451171875	0.24493408203125
885	0.24169921875	159.434969597465	-0.0045550537109375	0.242584228515625
886	0.2392578125	159.459369597404	-0.004495849609375	0.240081787109375
887	0.23681640625	159.483769597342	-0.0045623779296875	0.237701416015625
888	0.234375	159.508169597281	-0.00450225830078125	0.23516845703125
889	0.23193359375	159.532569597219	-0.00454864501953125	0.232757568359375
890	0.2294921875	159.556969597157	-0.004527587890625	0.2303466796875
891	0.22705078125	159.581369597096	-0.00452301025390625	0.22784423828125
892	0.224609375	159.605769597034	-0.004554443359375	0.22552490234375
893	0.22216796875	159.630169596973	-0.00450408935546875	0.222991943359375
894	0.2197265625	159.654569596911	-0.00456787109375	0.220611572265625
895	0.21728515625	159.678969596849	-0.0045037841796875	0.218109130859375
896	0.21484375	159.703369596788	-0.0045587158203125	0.215667724609375
897	0.21240234375	159.727769596726	-0.0045245361328125	0.213226318359375
898	0.2099609375	159.752169596665	-0.00453521728515625	0.2108154296875
899	0.20751953125	159.776569596603	-0.00455352783203125	0.20843505859375
900	0.205078125	159.800969596541	-0.0045123291015625	0.205841064453125
901	0.20263671875	159.82536959648	-0.00457122802734375	0.203521728515625
902	0.2001953125	159.849769596418	-0.00450714111328125	0.2010498046875
903	0.19775390625	159.874169596357	-0.0045684814453125	0.198638916015625
904	0.1953125	159.898569596295	-0.0045233154296875	0.19622802734375
905	0.19287109375	159.922969596233	-0.00454681396484375	0.1937255859375
906	0.1904296875	159.947369596172	-0.0045513916015625	0.1912841796875
907	0.18798828125	159.97176959611	-0.00452239990234375	0.18878173828125
908	0.185546875	159.996169596049	-0.00457427978515625	0.18646240234375
909	0.18310546875	160.020569595987	-0.00451171875	0.1839599609375
910	0.1806640625	160.044969595925	-0.004576416015625	0.181610107421875
911	0.17822265625	160.069369595864	-0.004522705078125	0.1790771484375
912	0.17578125	160.093769595802	-0.00455841064453125	0.176605224609375
913	0.17333984375	160.11816959574	-0.00454986572265625	0.174224853515625
914	0.1708984375	160.142569595679	-0.0045330810546875	0.171783447265625
915	0.16845703125	160.166969595617	-0.0045751953125	0.16937255859375
916	0.166015625	160.191369595556	-0.0045184326171875	0.1668701171875
917	0.16357421875	160.215769595494	-0.0045831298828125	0.16448974609375
918	0.1611328125	160.240169595432	-0.0045233154296875	0.162017822265625
919	0.15869140625	160.264569595371	-0.00457000732421875	0.1595458984375
920	0.15625	160.288969595309	-0.00454742431640625	0.157135009765625
921	0.15380859375	160.313369595248	-0.0045452880859375	0.1546630859375
922	0.1513671875	160.337769595186	-0.00457489013671875	0.152374267578125
923	0.14892578125	160.362169595124	-0.00452545166015625	0.149810791015625
924	0.146484375	160.386569595063	-0.0045880126953125	0.147430419921875
925	0.14404296875	160.410969595001	-0.0045257568359375	0.144866943359375
926	0.1416015625	160.43536959494	-0.00457977294921875	0.14251708984375
927	0.13916015625	160.459769594878	-0.0045452880859375	0.1400146484375
928	0.13671875	160.484169594816	-0.0045562744140625	0.1375732421875
929	0.13427734375	160.508569594755	-0.00457275390625	0.13519287109375
930	0.1318359375	160.532969594693	-0.00453399658203125	0.1326904296875
931	0.12939453125	160.557369594632	-0.004591064453125	0.13031005859375
932	0.126953125	160.58176959457	-0.0045269775390625	0.1278076171875
933	0.12451171875	160.606169594508	-0.0045880126953125	0.12542724609375
934	0.1220703125	160.630569594447	-0.00454345703125	0.12298583984375
935	0.11962890625	160.654969594385	-0.0045672607421875	0.120513916015625
936	0.1171875	160.679369594324	-0.0045709228515625	0.11810302734375
937	0.11474609375	160.703769594262	-0.00454345703125	0.1156005859375
938	0.1123046875	160.7281695942	-0.004593505859375	0.113250732421875
939	0.10986328125	160.752569594139	-0.004532470703125	0.110687255859375
940	0.107421875	160.776969594077	-0.0045965576171875	0.1083984375
941	0.10498046875	160.801369594016	-0.0045428466796875	0.1058349609375
942	0.1025390625	160.825769593954	-0.004578857421875	0.103424072265625
943	0.10009765625	160.850169593892	-0.00456878662109375	0.10101318359375
944	0.09765625	160.874569593831	-0.004554443359375	0.098480224609375
945	0.09521484375	160.898969593769	-0.004593505859375	0.096099853515625
946	0.0927734375	160.923369593708	-0.004537353515625	0.09368896484375
947	0.09033203125	160.947769593646	-0.00460113525390625	0.09124755859375
948	0.087890625	160.972169593584	-0.00454193115234375	0.088775634765625
949	0.08544921875	160.996569593523	-0.00458831787109375	0.08636474609375
950	0.0830078125	161.020969593461	-0.00456451416015625	0.083953857421875
951	0.08056640625	161.0453695934	-0.0045635986328125	0.0814208984375
952	0.078125	161.069769593338	-0.004591064453125	0.0791015625
953	0.07568359375	161.094169593276	-0.0045440673828125	0.0765380859375
954	0.0732421875	161.118569593215	-0.00460479736328125	0.074188232421875
955	0.07080078125	161.142969593153	-0.004542236328125	0.071685791015625
956	0.068359375	161.167369593092	-0.00459625244140625	0.069244384765625
957	0.06591796875	161.19176959303	-0.004560546875	0.066864013671875
958	0.0634765625	161.216169592968	-0.00457305908203125	0.0643310546875
959	0.06103515625	161.240569592907	-0.00458770751953125	0.06201171875
960	0.05859375	161.264969592845	-0.0045501708984375	0.05950927734375
961	0.05615234375	161.289369592783	-0.004605712890625	0.05712890625
962	0.0537109375	161.313769592722	-0.00454376220703125	0.0545654296875
963	0.05126953125	161.33816959266	-0.004603271484375	0.052215576171875
964	0.048828125	161.362569592599	-0.0045574951171875	0.049774169921875
965	0.04638671875	161.386969592537	-0.004583740234375	0.0466064453125
966	0.0439453125	161.411369592475	-0.00458343505859375	0.044183349609375
967	0.04150390625	161.435769592414	-0.00456024169921875	0.0416961669921875
968	0.0390625	161.460169592352	-0.00460662841796875	0.039324951171875
969	0.03662109375	161.484569592291	-0.0045477294921875	0.03680419921875
970	0.0341796875	161.508969592229	-0.00461029052734375	0.0344390869140625
971	0.03173828125	161.533369592167	-0.00455657958984375	0.0319305419921875
972	0.029296875	161.557769592106	-0.00459503173828125	0.0295196533203125
973	0.02685546875	161.582169592044	-0.00458099365234375	0.0271026611328125
974	0.0244140625	161.606569591983	-0.00457061767578125	0.0246307373046875
975	0.02197265625	161.630969591921	-0.00460693359375	0.022259521484375
976	0.01953125	161.655369591859	-0.0045550537109375	0.0197296142578125
977	0.01708984375	161.679769591798	-0.0046173095703125	0.0173553466796875
978	0.0146484375	161.704169591736	-0.00455810546875	0.0148468017578125
979	0.01220703125	161.728569591675	-0.00460601806640625	0.01243896484375
980	0.009765625	161.752969591613	-0.004580078125	0.00998840332031251
981	0.00732421875	161.777369591551	-0.004583740234375	0.00754394531249999
982	0.0048828125	161.80176959149	-0.0046075439453125	0.0051849365234375
983	0.00244140625	161.826169591428	-0.0045635986328125	0.00263061523437499
984	0	161.850569591367	-0.0046221923828125	0.000271606445312503
985	0.00244140625	161.874969591305	-0.004559326171875	0.00262451171875
986	0.0048828125	161.899369591243	-0.004613037109375	0.00512084960937501
987	0.00732421875	161.923769591182	-0.00457275390625	0.00756225585937501
988	0.009765625	161.94816959112	-0.00458709716796875	0.009979248046875
989	0.01220703125	161.972569591059	-0.004595947265625	0.012457275390625
990	0.0146484375	161.996969590997	-0.00456146240234375	0.0148193359375
991	0.01708984375	162.021369590935	-0.0046124267578125	0.0173614501953125
992	0.01953125	162.045769590874	-0.004549560546875	0.0197296142578125
993	0.02197265625	162.070169590812	-0.00460784912109375	0.0222320556640625
