Index	Potential applied (V)	Time (s)	WE(1).Current (A)	WE(1).Potential (V)
1	0.00244140625	6.26493198418257	-0.00460052490234375	0.00267639160156249
2	0.0048828125	6.28933198412096	-0.00456207275390625	0.005096435546875
3	0.00732421875	6.31373198405936	-0.00457672119140625	0.00754699707031251
4	0.009765625	6.33813198399776	-0.0045855712890625	0.0100006103515625
5	0.01220703125	6.36253198393615	-0.004552001953125	0.012396240234375
6	0.0146484375	6.38693198387455	-0.00460205078125	0.014923095703125
7	0.01708984375	6.41133198381294	-0.004539794921875	0.0172576904296875
8	0.01953125	6.43573198375134	-0.0046002197265625	0.019775390625
9	0.02197265625	6.46013198368973	-0.00454620361328125	0.0221710205078125
10	0.0244140625	6.48453198362813	-0.00458038330078125	0.0246429443359375
11	0.02685546875	6.50893198356653	-0.0045672607421875	0.0270904541015625
12	0.029296875	6.53333198350492	-0.00455413818359375	0.029486083984375
13	0.03173828125	6.55773198344332	-0.00458892822265625	0.03199462890625
14	0.0341796875	6.58213198338171	-0.00453369140625	0.0343536376953125
15	0.03662109375	6.60653198332011	-0.0045953369140625	0.0368988037109375
16	0.0390625	6.63093198325851	-0.004532470703125	0.0392333984375
17	0.04150390625	6.6553319831969	-0.0045831298828125	0.0417266845703125
18	0.0439453125	6.6797319831353	-0.004549560546875	0.04417724609375
19	0.04638671875	6.70413198307369	-0.0045587158203125	0.0466033935546875
20	0.048828125	6.72853198301209	-0.0045745849609375	0.049774169921875
21	0.05126953125	6.75293198295049	-0.0045343017578125	0.052154541015625
22	0.0537109375	6.77733198288888	-0.0045892333984375	0.05462646484375
23	0.05615234375	6.80173198282728	-0.00452423095703125	0.057037353515625
24	0.05859375	6.82613198276567	-0.004583740234375	0.059478759765625
25	0.06103515625	6.85053198270407	-0.00453399658203125	0.061981201171875
26	0.0634765625	6.87493198264247	-0.00456298828125	0.064361572265625
27	0.06591796875	6.89933198258086	-0.00455718994140625	0.06683349609375
28	0.068359375	6.92373198251926	-0.0045355224609375	0.069183349609375
29	0.07080078125	6.94813198245765	-0.0045770263671875	0.07177734375
30	0.0732421875	6.97253198239605	-0.0045184326171875	0.074127197265625
31	0.07568359375	6.99693198233444	-0.00458160400390625	0.0765380859375
32	0.078125	7.02133198227284	-0.00452056884765625	0.0789794921875
33	0.08056640625	7.04573198221124	-0.00456695556640625	0.081451416015625
34	0.0830078125	7.07013198214963	-0.00453948974609375	0.083892822265625
35	0.08544921875	7.09453198208803	-0.004541015625	0.0863037109375
36	0.087890625	7.11893198202642	-0.004564208984375	0.0888671875
37	0.09033203125	7.14333198196482	-0.00451812744140625	0.0911865234375
38	0.0927734375	7.16773198190322	-0.00457611083984375	0.09368896484375
39	0.09521484375	7.19213198184161	-0.00451080322265625	0.095977783203125
40	0.09765625	7.21653198178001	-0.00457000732421875	0.09857177734375
41	0.10009765625	7.2409319817184	-0.00452362060546875	0.1009521484375
42	0.1025390625	7.2653319816568	-0.004547119140625	0.1033935546875
43	0.10498046875	7.2897319815952	-0.00454742431640625	0.10589599609375
44	0.107421875	7.31413198153359	-0.004520263671875	0.108245849609375
45	0.10986328125	7.33853198147199	-0.00456695556640625	0.11083984375
46	0.1123046875	7.36293198141038	-0.00450439453125	0.113128662109375
47	0.11474609375	7.38733198134878	-0.0045684814453125	0.115692138671875
48	0.1171875	7.41173198128718	-0.00450927734375	0.118072509765625
49	0.11962890625	7.43613198122557	-0.0045513916015625	0.120452880859375
50	0.1220703125	7.46053198116397	-0.00452911376953125	0.123046875
51	0.12451171875	7.48493198110236	-0.00452423095703125	0.125396728515625
52	0.126953125	7.50933198104076	-0.0045526123046875	0.12786865234375
53	0.12939453125	7.53373198097916	-0.0045025634765625	0.130279541015625
54	0.1318359375	7.55813198091755	-0.0045635986328125	0.132720947265625
55	0.13427734375	7.58253198085595	-0.00449737548828125	0.13507080078125
56	0.13671875	7.60693198079434	-0.004554443359375	0.137603759765625
57	0.13916015625	7.63133198073274	-0.00451202392578125	0.1400146484375
58	0.1416015625	7.65573198067113	-0.004530029296875	0.142425537109375
59	0.14404296875	7.68013198060953	-0.00453704833984375	0.1448974609375
60	0.146484375	7.70453198054793	-0.00450408935546875	0.1473388671875
61	0.14892578125	7.72893198048632	-0.0045556640625	0.14984130859375
62	0.1513671875	7.75333198042472	-0.00449188232421875	0.1522216796875
63	0.15380859375	7.77773198036311	-0.0045562744140625	0.154693603515625
64	0.15625	7.80213198030151	-0.00449859619140625	0.1571044921875
65	0.15869140625	7.82653198023991	-0.004537353515625	0.1595458984375
66	0.1611328125	7.8509319801783	-0.004521484375	0.162017822265625
67	0.16357421875	7.8753319801167	-0.00451080322265625	0.164398193359375
68	0.166015625	7.89973198005509	-0.00454559326171875	0.166900634765625
69	0.16845703125	7.92413197999349	-0.00449005126953125	0.169281005859375
70	0.1708984375	7.94853197993189	-0.00455352783203125	0.1717529296875
71	0.17333984375	7.97293197987028	-0.00448760986328125	0.174224853515625
72	0.17578125	7.99733197980868	-0.004542236328125	0.176666259765625
73	0.17822265625	8.02173197974707	-0.00450439453125	0.179046630859375
74	0.1806640625	8.04613197968547	-0.00451568603515625	0.18145751953125
75	0.18310546875	8.07053197962387	-0.0045281982421875	0.1839599609375
76	0.185546875	8.09493197956226	-0.00449066162109375	0.18634033203125
77	0.18798828125	8.11933197950066	-0.0045458984375	0.1888427734375
78	0.1904296875	8.14373197943905	-0.004478759765625	0.19122314453125
79	0.19287109375	8.16813197937745	-0.004542236328125	0.1937255859375
80	0.1953125	8.19253197931585	-0.00448760986328125	0.196136474609375
81	0.19775390625	8.21693197925424	-0.0045220947265625	0.1986083984375
82	0.2001953125	8.24133197919264	-0.00451263427734375	0.2010498046875
83	0.20263671875	8.26573197913103	-0.0044952392578125	0.203460693359375
84	0.205078125	8.29013197906943	-0.004534912109375	0.205963134765625
85	0.20751953125	8.31453197900782	-0.00447723388671875	0.208343505859375
86	0.2099609375	8.33893197894622	-0.0045428466796875	0.2108154296875
87	0.21240234375	8.36333197888462	-0.00447723388671875	0.21319580078125
88	0.21484375	8.38773197882301	-0.0045294189453125	0.215667724609375
89	0.21728515625	8.41213197876141	-0.0044964599609375	0.218170166015625
90	0.2197265625	8.4365319786998	-0.00450286865234375	0.2205810546875
91	0.22216796875	8.4609319786382	-0.0045220947265625	0.2230224609375
92	0.224609375	8.4853319785766	-0.00447845458984375	0.225372314453125
93	0.22705078125	8.50973197851499	-0.0045367431640625	0.227935791015625
94	0.2294921875	8.53413197845339	-0.004468994140625	0.230255126953125
95	0.23193359375	8.55853197839178	-0.00453155517578125	0.232818603515625
96	0.234375	8.58293197833018	-0.00448028564453125	0.235198974609375
97	0.23681640625	8.60733197826858	-0.00451019287109375	0.23760986328125
98	0.2392578125	8.63173197820697	-0.00450439453125	0.240142822265625
99	0.24169921875	8.65613197814537	-0.004482421875	0.242462158203125
100	0.244140625	8.68053197808376	-0.00452667236328125	0.244964599609375
101	0.24658203125	8.70493197802216	-0.004464111328125	0.24737548828125
102	0.2490234375	8.72933197796056	-0.00453094482421875	0.249908447265625
103	0.25146484375	8.75373197789895	-0.004466552734375	0.25225830078125
104	0.25390625	8.77813197783735	-0.004515380859375	0.2547607421875
105	0.25634765625	8.80253197777574	-0.00448699951171875	0.2572021484375
106	0.2587890625	8.82693197771414	-0.00448883056640625	0.259521484375
107	0.26123046875	8.85133197765253	-0.004512939453125	0.2620849609375
108	0.263671875	8.87573197759093	-0.00446563720703125	0.264404296875
109	0.26611328125	8.90013197752933	-0.0045263671875	0.266937255859375
110	0.2685546875	8.92453197746772	-0.0044573974609375	0.26934814453125
111	0.27099609375	8.94893197740612	-0.00451873779296875	0.2718505859375
112	0.2734375	8.97333197734451	-0.00447052001953125	0.2742919921875
113	0.27587890625	8.99773197728291	-0.00449554443359375	0.27667236328125
114	0.2783203125	9.02213197722131	-0.004495849609375	0.2791748046875
115	0.28076171875	9.0465319771597	-0.00446746826171875	0.28155517578125
116	0.283203125	9.0709319770981	-0.00451568603515625	0.284088134765625
117	0.28564453125	9.09533197703649	-0.0044512939453125	0.286407470703125
118	0.2880859375	9.11973197697489	-0.00451873779296875	0.288909912109375
119	0.29052734375	9.14413197691329	-0.0044549560546875	0.29132080078125
120	0.29296875	9.16853197685168	-0.00450103759765625	0.293792724609375
121	0.29541015625	9.19293197679008	-0.0044769287109375	0.29632568359375
122	0.2978515625	9.21733197672847	-0.00447357177734375	0.29864501953125
123	0.30029296875	9.24173197666687	-0.00450286865234375	0.301177978515625
124	0.302734375	9.26613197660527	-0.00445037841796875	0.303497314453125
125	0.30517578125	9.29053197654366	-0.00451416015625	0.305999755859375
126	0.3076171875	9.31493197648206	-0.00444549560546875	0.308380126953125
127	0.31005859375	9.33933197642045	-0.0045062255859375	0.310882568359375
128	0.3125	9.36373197635885	-0.0044610595703125	0.313262939453125
129	0.31494140625	9.38813197629725	-0.00448211669921875	0.315704345703125
130	0.3173828125	9.41253197623564	-0.00448699951171875	0.31817626953125
131	0.31982421875	9.43693197617404	-0.0044549560546875	0.320648193359375
132	0.322265625	9.46133197611243	-0.00450775146484375	0.323150634765625
133	0.32470703125	9.48573197605083	-0.00444061279296875	0.325469970703125
134	0.3271484375	9.51013197598922	-0.00450836181640625	0.327972412109375
135	0.32958984375	9.53453197592762	-0.0044476318359375	0.33038330078125
136	0.33203125	9.55893197586602	-0.00449005126953125	0.332763671875
137	0.33447265625	9.58333197580441	-0.00447052001953125	0.335296630859375
138	0.3369140625	9.60773197574281	-0.0044622802734375	0.33770751953125
139	0.33935546875	9.6321319756812	-0.00449493408203125	0.3402099609375
140	0.341796875	9.6565319756196	-0.0044403076171875	0.342529296875
141	0.34423828125	9.680931975558	-0.0045062255859375	0.3450927734375
142	0.3466796875	9.70533197549639	-0.00443634033203125	0.347442626953125
143	0.34912109375	9.72973197543479	-0.004495849609375	0.34991455078125
144	0.3515625	9.75413197537318	-0.00445343017578125	0.35235595703125
145	0.35400390625	9.77853197531158	-0.00447052001953125	0.354827880859375
146	0.3564453125	9.80293197524998	-0.0044793701171875	0.357330322265625
147	0.35888671875	9.82733197518837	-0.004443359375	0.359649658203125
148	0.361328125	9.85173197512677	-0.00449798583984375	0.36224365234375
149	0.36376953125	9.87613197506516	-0.004429931640625	0.36456298828125
150	0.3662109375	9.90053197500356	-0.00449737548828125	0.367034912109375
151	0.36865234375	9.92493197494196	-0.00443572998046875	0.369476318359375
152	0.37109375	9.94933197488035	-0.00447601318359375	0.371917724609375
153	0.37353515625	9.97373197481875	-0.00445953369140625	0.374359130859375
154	0.3759765625	9.99813197475714	-0.0044476318359375	0.376708984375
155	0.37841796875	10.0225319746955	-0.0044842529296875	0.3792724609375
156	0.380859375	10.0469319746339	-0.00442596435546875	0.381591796875
157	0.38330078125	10.0713319745723	-0.00449310302734375	0.38409423828125
158	0.3857421875	10.0957319745107	-0.00442291259765625	0.386505126953125
159	0.38818359375	10.1201319744491	-0.0044805908203125	0.38897705078125
160	0.390625	10.1445319743875	-0.00444061279296875	0.391357421875
161	0.39306640625	10.1689319743259	-0.00445281982421875	0.393798828125
162	0.3955078125	10.1933319742643	-0.0044659423828125	0.396331787109375
163	0.39794921875	10.2177319742027	-0.0044268798828125	0.398681640625
164	0.400390625	10.2421319741411	-0.00448394775390625	0.4012451171875
165	0.40283203125	10.2665319740795	-0.00441314697265625	0.403533935546875
166	0.4052734375	10.2909319740179	-0.00448089599609375	0.4061279296875
167	0.40771484375	10.3153319739563	-0.00442138671875	0.40850830078125
168	0.41015625	10.3397319738947	-0.0044598388671875	0.41094970703125
169	0.41259765625	10.3641319738331	-0.0044464111328125	0.41339111328125
170	0.4150390625	10.3885319737715	-0.004429931640625	0.415771484375
171	0.41748046875	10.4129319737099	-0.0044696044921875	0.418304443359375
172	0.419921875	10.4373319736483	-0.00440826416015625	0.420623779296875
173	0.42236328125	10.4617319735867	-0.0044769287109375	0.4232177734375
174	0.4248046875	10.4861319735251	-0.00440582275390625	0.425567626953125
175	0.42724609375	10.5105319734635	-0.00446197509765625	0.427947998046875
176	0.4296875	10.5349319734019	-0.0044232177734375	0.430450439453125
177	0.43212890625	10.5593319733402	-0.00443359375	0.432861328125
178	0.4345703125	10.5837319732786	-0.004449462890625	0.435394287109375
179	0.43701171875	10.608131973217	-0.00440521240234375	0.437713623046875
180	0.439453125	10.6325319731554	-0.00446502685546875	0.440277099609375
181	0.44189453125	10.6569319730938	-0.00439178466796875	0.442657470703125
182	0.4443359375	10.6813319730322	-0.00445953369140625	0.44512939453125
183	0.44677734375	10.7057319729706	-0.00440093994140625	0.447540283203125
184	0.44921875	10.730131972909	-0.00443603515625	0.449920654296875
185	0.45166015625	10.7545319728474	-0.00442474365234375	0.452484130859375
186	0.4541015625	10.7789319727858	-0.0044061279296875	0.45477294921875
187	0.45654296875	10.8033319727242	-0.0044488525390625	0.45733642578125
188	0.458984375	10.8277319726626	-0.00438323974609375	0.459686279296875
189	0.46142578125	10.852131972601	-0.00445343017578125	0.4622802734375
190	0.4638671875	10.8765319725394	-0.00438323974609375	0.464569091796875
191	0.46630859375	10.9009319724778	-0.00443817138671875	0.467071533203125
192	0.46875	10.9253319724162	-0.00440216064453125	0.469482421875
193	0.47119140625	10.9497319723546	-0.0044085693359375	0.471923828125
194	0.4736328125	10.974131972293	-0.00442718505859375	0.474456787109375
195	0.47607421875	10.9985319722314	-0.00438232421875	0.476776123046875
196	0.478515625	11.0229319721698	-0.00444427490234375	0.479278564453125
197	0.48095703125	11.0473319721082	-0.0043695068359375	0.481719970703125
198	0.4833984375	11.0717319720466	-0.0044384765625	0.484130859375
199	0.48583984375	11.096131971985	-0.00437957763671875	0.486572265625
200	0.48828125	11.1205319719234	-0.00441436767578125	0.489013671875
201	0.49072265625	11.1449319718618	-0.004405517578125	0.49151611328125
202	0.4931640625	11.1693319718001	-0.00438232421875	0.493896484375
203	0.49560546875	11.1937319717385	-0.004427490234375	0.49639892578125
204	0.498046875	11.2181319716769	-0.0043609619140625	0.498748779296875
205	0.50048828125	11.2425319716153	-0.0044317626953125	0.501190185546875
206	0.5029296875	11.2669319715537	-0.0043597412109375	0.503570556640625
207	0.50537109375	11.2913319714921	-0.0044146728515625	0.506103515625
208	0.5078125	11.3157319714305	-0.004378662109375	0.50848388671875
209	0.51025390625	11.3401319713689	-0.00438323974609375	0.51092529296875
210	0.5126953125	11.3645319713073	-0.0044049072265625	0.51348876953125
211	0.51513671875	11.3889319712457	-0.00435455322265625	0.515838623046875
212	0.517578125	11.4133319711841	-0.00441864013671875	0.51837158203125
213	0.52001953125	11.4377319711225	-0.00434326171875	0.52069091796875
214	0.5224609375	11.4621319710609	-0.00441192626953125	0.523223876953125
215	0.52490234375	11.4865319709993	-0.00435302734375	0.525634765625
216	0.52734375	11.5109319709377	-0.00438446044921875	0.528045654296875
217	0.52978515625	11.5353319708761	-0.00437652587890625	0.530548095703125
218	0.5322265625	11.5597319708145	-0.004351806640625	0.53289794921875
219	0.53466796875	11.5841319707529	-0.0043988037109375	0.535430908203125
220	0.537109375	11.6085319706913	-0.00432952880859375	0.537750244140625
221	0.53955078125	11.6329319706297	-0.00440185546875	0.540313720703125
222	0.5419921875	11.6573319705681	-0.00432769775390625	0.542572021484375
223	0.54443359375	11.6817319705065	-0.0043829345703125	0.545166015625
224	0.546875	11.7061319704449	-0.00434783935546875	0.547607421875
225	0.54931640625	11.7305319703833	-0.00435028076171875	0.54998779296875
226	0.5517578125	11.7549319703216	-0.00437255859375	0.552459716796875
227	0.55419921875	11.77933197026	-0.00431976318359375	0.55487060546875
228	0.556640625	11.8037319701984	-0.00438751220703125	0.557373046875
229	0.55908203125	11.8281319701368	-0.004307861328125	0.559722900390625
230	0.5615234375	11.8525319700752	-0.0043768310546875	0.562164306640625
231	0.56396484375	11.8769319700136	-0.00431793212890625	0.564605712890625
232	0.56640625	11.901331969952	-0.00434783935546875	0.56707763671875
233	0.56884765625	11.9257319698904	-0.00434234619140625	0.56951904296875
234	0.5712890625	11.9501319698288	-0.00431396484375	0.571929931640625
235	0.57373046875	11.9745319697672	-0.00436370849609375	0.574554443359375
236	0.576171875	11.9989319697056	-0.0042919921875	0.57684326171875
237	0.57861328125	12.023331969644	-0.00436614990234375	0.57928466796875
238	0.5810546875	12.0477319695824	-0.0042901611328125	0.58172607421875
239	0.58349609375	12.0721319695208	-0.00434417724609375	0.58416748046875
240	0.5859375	12.0965319694592	-0.0043084716796875	0.58660888671875
241	0.58837890625	12.1209319693976	-0.004310302734375	0.589019775390625
242	0.5908203125	12.145331969336	-0.00433349609375	0.591522216796875
243	0.59326171875	12.1697319692744	-0.00427703857421875	0.593841552734375
244	0.595703125	12.1941319692128	-0.00434417724609375	0.596435546875
245	0.59814453125	12.2185319691512	-0.00426361083984375	0.598724365234375
246	0.6005859375	12.2429319690896	-0.0043341064453125	0.601287841796875
247	0.60302734375	12.267331969028	-0.0042718505859375	0.60369873046875
248	0.60546875	12.2917319689664	-0.0043023681640625	0.6060791015625
249	0.60791015625	12.3161319689048	-0.0042962646484375	0.60858154296875
250	0.6103515625	12.3405319688432	-0.00426605224609375	0.61090087890625
251	0.61279296875	12.3649319687815	-0.00431610107421875	0.61346435546875
252	0.615234375	12.3893319687199	-0.00423919677734375	0.6158447265625
253	0.61767578125	12.4137319686583	-0.00431396484375	0.618316650390625
254	0.6201171875	12.4381319685967	-0.0042352294921875	0.620758056640625
255	0.62255859375	12.4625319685351	-0.00428985595703125	0.623199462890625
256	0.625	12.4869319684735	-0.00425323486328125	0.625640869140625
257	0.62744140625	12.5113319684119	-0.00425140380859375	0.6280517578125
258	0.6298828125	12.5357319683503	-0.0042755126953125	0.630584716796875
259	0.63232421875	12.5601319682887	-0.004217529296875	0.632843017578125
260	0.634765625	12.5845319682271	-0.0042852783203125	0.635467529296875
261	0.63720703125	12.6089319681655	-0.0041986083984375	0.6378173828125
262	0.6396484375	12.6333319681039	-0.00427001953125	0.64031982421875
263	0.64208984375	12.6577319680423	-0.00420562744140625	0.642669677734375
264	0.64453125	12.6821319679807	-0.00423736572265625	0.645111083984375
265	0.64697265625	12.7065319679191	-0.0042303466796875	0.64764404296875
266	0.6494140625	12.7309319678575	-0.00419586181640625	0.64996337890625
267	0.65185546875	12.7553319677959	-0.004248046875	0.652587890625
268	0.654296875	12.7797319677343	-0.00416839599609375	0.654876708984375
269	0.65673828125	12.8041319676727	-0.00424774169921875	0.657379150390625
270	0.6591796875	12.8285319676111	-0.00416290283203125	0.6597900390625
271	0.66162109375	12.8529319675495	-0.00421875	0.662200927734375
272	0.6640625	12.8773319674879	-0.004178466796875	0.6646728515625
273	0.66650390625	12.9017319674263	-0.00417755126953125	0.667083740234375
274	0.6689453125	12.9261319673647	-0.00420257568359375	0.66961669921875
275	0.67138671875	12.950531967303	-0.00413818359375	0.671966552734375
276	0.673828125	12.9749319672414	-0.004210205078125	0.674468994140625
277	0.67626953125	12.9993319671798	-0.00411956787109375	0.676849365234375
278	0.6787109375	13.0237319671182	-0.00419403076171875	0.679351806640625
279	0.68115234375	13.0481319670566	-0.0041253662109375	0.6817626953125
280	0.68359375	13.072531966995	-0.0041546630859375	0.68414306640625
281	0.68603515625	13.0969319669334	-0.0041448974609375	0.68670654296875
282	0.6884765625	13.1213319668718	-0.00410980224609375	0.68896484375
283	0.69091796875	13.1457319668102	-0.00416290283203125	0.6915283203125
284	0.693359375	13.1701319667486	-0.00407562255859375	0.69378662109375
285	0.69580078125	13.194531966687	-0.00415618896484375	0.696380615234375
286	0.6982421875	13.2189319666254	-0.004068603515625	0.698760986328125
287	0.70068359375	13.2433319665638	-0.00412567138671875	0.701171875
288	0.703125	13.2677319665022	-0.00408294677734375	0.70361328125
289	0.70556640625	13.2921319664406	-0.00407806396484375	0.7060546875
290	0.7080078125	13.316531966379	-0.004102783203125	0.70849609375
291	0.71044921875	13.3409319663174	-0.00403564453125	0.71087646484375
292	0.712890625	13.3653319662558	-0.00410858154296875	0.71343994140625
293	0.71533203125	13.3897319661942	-0.00401031494140625	0.7158203125
294	0.7177734375	13.4141319661326	-0.00408477783203125	0.71826171875
295	0.72021484375	13.438531966071	-0.00401092529296875	0.72064208984375
296	0.72265625	13.4629319660094	-0.00404052734375	0.72308349609375
297	0.72509765625	13.4873319659478	-0.0040289306640625	0.725616455078125
298	0.7275390625	13.5117319658862	-0.0039874267578125	0.72796630859375
299	0.72998046875	13.5361319658246	-0.0040411376953125	0.730560302734375
300	0.732421875	13.5605319657629	-0.0039501953125	0.7327880859375
301	0.73486328125	13.5849319657013	-0.00403289794921875	0.735321044921875
302	0.7373046875	13.6093319656397	-0.00393768310546875	0.73773193359375
303	0.73974609375	13.6337319655781	-0.003994140625	0.74017333984375
304	0.7421875	13.6581319655165	-0.0039471435546875	0.742584228515625
305	0.74462890625	13.6825319654549	-0.00394256591796875	0.74505615234375
306	0.7470703125	13.7069319653933	-0.00396759033203125	0.74761962890625
307	0.74951171875	13.7313319653317	-0.00389373779296875	0.74859619140625
308	0.751953125	13.7557319652701	-0.003966064453125	0.7513427734375
309	0.75439453125	13.7801319652085	-0.003863525390625	0.75347900390625
310	0.7568359375	13.8045319651469	-0.00394195556640625	0.7562255859375
311	0.75927734375	13.8289319650853	-0.00386260986328125	0.75836181640625
312	0.76171875	13.8533319650237	-0.0038909912109375	0.76141357421875
313	0.76416015625	13.8777319649621	-0.003873291015625	0.76324462890625
314	0.7666015625	13.9021319649005	-0.003834228515625	0.7659912109375
315	0.76904296875	13.9265319648389	-0.00388671875	0.7684326171875
316	0.771484375	13.9509319647773	-0.003787841796875	0.7708740234375
317	0.77392578125	13.9753319647157	-0.00386932373046875	0.7733154296875
318	0.7763671875	13.9997319646541	-0.00376922607421875	0.7757568359375
319	0.77880859375	14.0241319645925	-0.00382965087890625	0.77789306640625
320	0.78125	14.0485319645309	-0.00377685546875	0.78033447265625
321	0.78369140625	14.0729319644693	-0.00376861572265625	0.78277587890625
322	0.7861328125	14.0973319644077	-0.00378662109375	0.78521728515625
323	0.78857421875	14.1217319643461	-0.003712158203125	0.787353515625
324	0.791015625	14.1461319642845	-0.003785400390625	0.789794921875
325	0.79345703125	14.1705319642228	-0.00367401123046875	0.792236328125
326	0.7958984375	14.1949319641612	-0.00375030517578125	0.79559326171875
327	0.79833984375	14.2193319640996	-0.00366668701171875	0.797119140625
328	0.80078125	14.243731964038	-0.00369537353515625	0.79986572265625
329	0.80322265625	14.2681319639764	-0.0036767578125	0.802001953125
330	0.8056640625	14.2925319639148	-0.00362762451171875	0.80535888671875
331	0.80810546875	14.3169319638532	-0.00367706298828125	0.80718994140625
332	0.810546875	14.3413319637916	-0.0035772705078125	0.81024169921875
333	0.81298828125	14.36573196373	-0.003658447265625	0.81207275390625
334	0.8154296875	14.3901319636684	-0.0035504150390625	0.8148193359375
335	0.81787109375	14.4145319636068	-0.0036065673828125	0.81695556640625
336	0.8203125	14.4389319635452	-0.00355072021484375	0.819091796875
337	0.82275390625	14.4633319634836	-0.00354339599609375	0.8221435546875
338	0.8251953125	14.487731963422	-0.00355865478515625	0.82489013671875
339	0.82763671875	14.5121319633604	-0.00347503662109375	0.8270263671875
340	0.830078125	14.5365319632988	-0.003544921875	0.8294677734375
341	0.83251953125	14.5609319632372	-0.003433837890625	0.83160400390625
342	0.8349609375	14.5853319631756	-0.00350738525390625	0.8343505859375
343	0.83740234375	14.609731963114	-0.00341766357421875	0.8367919921875
344	0.83984375	14.6341319630524	-0.003438720703125	0.83892822265625
345	0.84228515625	14.6585319629908	-0.00341644287109375	0.84136962890625
346	0.8447265625	14.6829319629292	-0.00336822509765625	0.8441162109375
347	0.84716796875	14.7073319628676	-0.00341552734375	0.84625244140625
348	0.849609375	14.731731962806	-0.0033056640625	0.84869384765625
349	0.85205078125	14.7561319627443	-0.0033807373046875	0.850830078125
350	0.8544921875	14.7805319626827	-0.00327362060546875	0.853271484375
351	0.85693359375	14.8049319626211	-0.00332427978515625	0.85693359375
352	0.859375	14.8293319625595	-0.0032647705078125	0.8587646484375
353	0.86181640625	14.8537319624979	-0.00324432373046875	0.86090087890625
354	0.8642578125	14.8781319624363	-0.00325592041015625	0.8636474609375
355	0.86669921875	14.9025319623747	-0.00317138671875	0.865478515625
356	0.869140625	14.9269319623131	-0.0032373046875	0.8685302734375
357	0.87158203125	14.9513319622515	-0.003116455078125	0.870361328125
358	0.8740234375	14.9757319621899	-0.00318084716796875	0.87310791015625
359	0.87646484375	15.0001319621283	-0.00308990478515625	0.87554931640625
360	0.87890625	15.0245319620667	-0.0031072998046875	0.87799072265625
361	0.88134765625	15.0489319620051	-0.003079833984375	0.8807373046875
362	0.8837890625	15.0733319619435	-0.00301971435546875	0.8831787109375
363	0.88623046875	15.0977319618819	-0.00305694580078125	0.8856201171875
364	0.888671875	15.1221319618203	-0.00294830322265625	0.8880615234375
365	0.89111328125	15.1465319617587	-0.00301361083984375	0.89019775390625
366	0.8935546875	15.1709319616971	-0.00289794921875	0.892333984375
367	0.89599609375	15.1953319616355	-0.0029345703125	0.8953857421875
368	0.8984375	15.2197319615739	-0.00286956787109375	0.8978271484375
369	0.90087890625	15.2441319615123	-0.0028448486328125	0.9002685546875
370	0.9033203125	15.2685319614507	-0.0028515625	0.90301513671875
371	0.90576171875	15.2929319613891	-0.00275238037109375	0.9051513671875
372	0.908203125	15.3173319613275	-0.0028033447265625	0.906982421875
373	0.91064453125	15.3417319612659	-0.00268463134765625	0.90972900390625
374	0.9130859375	15.3661319612042	-0.00273773193359375	0.911865234375
375	0.91552734375	15.3905319611426	-0.0026397705078125	0.9149169921875
376	0.91796875	15.414931961081	-0.00263916015625	0.91796875
377	0.92041015625	15.4393319610194	-0.00260345458984375	0.91949462890625
378	0.9228515625	15.4637319609578	-0.00253997802734375	0.92193603515625
379	0.92529296875	15.4881319608962	-0.002564697265625	0.924072265625
380	0.927734375	15.5125319608346	-0.00244140625	0.92681884765625
381	0.93017578125	15.536931960773	-0.002489013671875	0.92864990234375
382	0.9326171875	15.5613319607114	-0.00237060546875	0.9320068359375
383	0.93505859375	15.5857319606498	-0.00239593505859375	0.93414306640625
384	0.9375	15.6101319605882	-0.00232330322265625	0.93719482421875
385	0.93994140625	15.6345319605266	-0.002276611328125	0.938720703125
386	0.9423828125	15.658931960465	-0.002264404296875	0.9417724609375
387	0.94482421875	15.6833319604034	-0.0021661376953125	0.94451904296875
388	0.947265625	15.7077319603418	-0.00219970703125	0.9466552734375
389	0.94970703125	15.7321319602802	-0.0020660400390625	0.948486328125
390	0.9521484375	15.7565319602186	-0.00208892822265625	0.95123291015625
391	0.95458984375	15.780931960157	-0.00198394775390625	0.9539794921875
392	0.95703125	15.8053319600954	-0.00197021484375	0.955810546875
393	0.95947265625	15.8297319600338	-0.0019195556640625	0.95916748046875
394	0.9619140625	15.8541319599722	-0.0018280029296875	0.960693359375
395	0.96435546875	15.8785319599106	-0.00182952880859375	0.96343994140625
396	0.966796875	15.902931959849	-0.0017095947265625	0.96527099609375
397	0.96923828125	15.9273319597874	-0.00173187255859375	0.9686279296875
398	0.9716796875	15.9517319597257	-0.00160125732421875	0.9710693359375
399	0.97412109375	15.9761319596641	-0.00159027099609375	0.972900390625
400	0.9765625	16.0005319596025	-0.00149993896484375	0.97564697265625
401	0.97900390625	16.0249319595409	-0.00144500732421875	0.97808837890625
402	0.9814453125	16.0493319594793	-0.00141021728515625	0.98052978515625
403	0.98388671875	16.0737319594177	-0.00128204345703125	0.98297119140625
404	0.986328125	16.0981319593561	-0.00128204345703125	0.9857177734375
405	0.98876953125	16.1225319592945	-0.00114654541015625	0.9881591796875
406	0.9912109375	16.1469319592329	-0.00114501953125	0.989990234375
407	0.99365234375	16.1713319591713	-0.00102508544921875	0.99273681640625
408	0.99609375	16.1957319591097	-0.00096893310546875	0.9954833984375
409	0.99853515625	16.2201319590481	-0.000894775390625	0.99761962890625
410	1.0009765625	16.2445319589865	-0.00079925537109375	1.0003662109375
411	1.00341796875	16.2689319589249	-0.0007720947265625	1.0028076171875
412	1.005859375	16.2933319588633	-0.00062408447265625	1.00494384765625
413	1.00830078125	16.3177319588017	-0.00060302734375	1.0076904296875
414	1.0107421875	16.3421319587401	-0.00046630859375	1.00921630859375
415	1.01318359375	16.3665319586785	-0.0004317626953125	1.0125732421875
416	1.015625	16.3909319586169	-0.00032537841796875	1.0150146484375
417	1.01806640625	16.4153319585553	-0.000223236083984375	1.01715087890625
418	1.0205078125	16.4397319584937	-0.00015789794921875	1.01959228515625
419	1.02294921875	16.4641319584321	-3.460693359375E-05	1.02203369140625
420	1.025390625	16.4885319583705	7.62939453125E-08	1.02447509765625
421	1.02783203125	16.5129319583089	0.000156463623046875	1.02691650390625
422	1.0302734375	16.5373319582473	0.0002099609375	1.02935791015625
423	1.03271484375	16.5617319581856	0.000343292236328125	1.031494140625
424	1.03515625	16.586131958124	0.000413726806640625	1.03424072265625
425	1.03759765625	16.6105319580624	0.000511474609375	1.03668212890625
426	1.0400390625	16.6349319580008	0.0006494140625	1.03912353515625
427	1.04248046875	16.6593319579392	0.00071685791015625	1.0418701171875
428	1.044921875	16.6837319578776	0.0008587646484375	1.04400634765625
429	1.04736328125	16.708131957816	0.000909423828125	1.046142578125
430	1.0498046875	16.7325319577544	0.0010675048828125	1.048583984375
431	1.05224609375	16.7569319576928	0.00115264892578125	1.05133056640625
432	1.0546875	16.7813319576312	0.00128265380859375	1.05316162109375
433	1.05712890625	16.8057319575696	0.00138275146484375	1.05621337890625
434	1.0595703125	16.830131957508	0.0014739990234375	1.05865478515625
435	1.06201171875	16.8545319574464	0.001639404296875	1.06109619140625
436	1.064453125	16.8789319573848	0.0017169189453125	1.063232421875
437	1.06689453125	16.9033319573232	0.00187225341796875	1.065673828125
438	1.0693359375	16.9277319572616	0.00194366455078125	1.068115234375
439	1.07177734375	16.9521319572	0.0020947265625	1.07086181640625
440	1.07421875	16.9765319571384	0.00221649169921875	1.07391357421875
441	1.07666015625	17.0009319570768	0.00234100341796875	1.07574462890625
442	1.0791015625	17.0253319570152	0.00246795654296875	1.07818603515625
443	1.08154296875	17.0497319569536	0.00256195068359375	1.08062744140625
444	1.083984375	17.074131956892	0.00274169921875	1.08306884765625
445	1.08642578125	17.0985319568304	0.0028375244140625	1.0858154296875
446	1.0888671875	17.1229319567688	0.00299896240234375	1.087646484375
447	1.09130859375	17.1473319567071	0.0030938720703125	1.090087890625
448	1.09375	17.1717319566455	0.003236083984375	1.0931396484375
449	1.09619140625	17.1961319565839	0.00338775634765625	1.0955810546875
450	1.0986328125	17.2205319565223	0.0035076904296875	1.097412109375
451	1.10107421875	17.2449319564607	0.00364959716796875	1.10015869140625
452	1.103515625	17.2693319563991	0.00374420166015625	1.102294921875
453	1.10595703125	17.2937319563375	0.003912353515625	1.1053466796875
454	1.1083984375	17.3181319562759	0.00401763916015625	1.10748291015625
455	1.11083984375	17.3425319562143	0.0041522216796875	1.10992431640625
456	1.11328125	17.3669319561527	0.004241943359375	1.11236572265625
457	1.11572265625	17.3913319560911	0.004342041015625	1.1151123046875
458	1.1181640625	17.4157319560295	0.00445770263671875	1.1175537109375
459	1.12060546875	17.4401319559679	0.0045318603515625	1.1199951171875
460	1.123046875	17.4645319559063	0.00461822509765625	1.12213134765625
461	1.12548828125	17.4889319558447	0.00467254638671875	1.12457275390625
462	1.1279296875	17.5133319557831	0.00475433349609375	1.1273193359375
463	1.13037109375	17.5377319557215	0.00481292724609375	1.129150390625
464	1.1328125	17.5621319556599	0.0048748779296875	1.1322021484375
465	1.13525390625	17.5865319555983	0.00492218017578125	1.13433837890625
466	1.1376953125	17.6109319555367	0.00496795654296875	1.136474609375
467	1.14013671875	17.6353319554751	0.00502716064453125	1.1395263671875
468	1.142578125	17.6597319554135	0.00506561279296875	1.14166259765625
469	1.14501953125	17.6841319553519	0.0051116943359375	1.14410400390625
470	1.1474609375	17.7085319552903	0.005142822265625	1.146240234375
471	1.14990234375	17.7329319552287	0.00518524169921875	1.14959716796875
472	1.15234375	17.757331955167	0.005223388671875	1.15142822265625
473	1.15478515625	17.7817319551054	0.00525848388671875	1.1541748046875
474	1.1572265625	17.8061319550438	0.00528961181640625	1.156005859375
475	1.15966796875	17.8305319549822	0.0053173828125	1.158447265625
476	1.162109375	17.8549319549206	0.00535552978515625	1.160888671875
477	1.16455078125	17.879331954859	0.00538238525390625	1.16363525390625
478	1.1669921875	17.9037319547974	0.00541351318359375	1.165771484375
479	1.16943359375	17.9281319547358	0.0054364013671875	1.16851806640625
480	1.171875	17.9525319546742	0.00546417236328125	1.170654296875
481	1.17431640625	17.9769319546126	0.00549346923828125	1.173095703125
482	1.1767578125	18.001331954551	0.005517578125	1.1761474609375
483	1.17919921875	18.0257319544894	0.00554168701171875	1.177978515625
484	1.181640625	18.0501319544278	0.0055615234375	1.180419921875
485	1.18408203125	18.0745319543662	0.00558929443359375	1.182861328125
486	1.1865234375	18.0989319543046	0.0056109619140625	1.185302734375
487	1.18896484375	18.123331954243	0.00563446044921875	1.18804931640625
488	1.19140625	18.1477319541814	0.005653076171875	1.19049072265625
489	1.19384765625	18.1721319541198	0.00567352294921875	1.192626953125
490	1.1962890625	18.1965319540582	0.00569793701171875	1.195068359375
491	1.19873046875	18.2209319539966	0.005716552734375	1.197509765625
492	1.201171875	18.245331953935	0.00573638916015625	1.19964599609375
493	1.19873046875	18.2697319538734	0.00571380615234375	1.19781494140625
494	1.1962890625	18.2941319538118	0.0056964111328125	1.195068359375
495	1.19384765625	18.3185319537502	0.00567596435546875	1.192626953125
496	1.19140625	18.3429319536885	0.0056561279296875	1.19110107421875
497	1.18896484375	18.3673319536269	0.00563232421875	1.18743896484375
498	1.1865234375	18.3917319535653	0.00560882568359375	1.185302734375
499	1.18408203125	18.4161319535037	0.00559112548828125	1.182861328125
500	1.181640625	18.4405319534421	0.00556610107421875	1.18072509765625
501	1.17919921875	18.4649319533805	0.00554412841796875	1.177978515625
502	1.1767578125	18.4893319533189	0.00551513671875	1.175537109375
503	1.17431640625	18.5137319532573	0.00549224853515625	1.173095703125
504	1.171875	18.5381319531957	0.0054681396484375	1.17095947265625
505	1.16943359375	18.5625319531341	0.00544158935546875	1.1688232421875
506	1.1669921875	18.5869319530725	0.00541259765625	1.16607666015625
507	1.16455078125	18.6113319530109	0.0053802490234375	1.1639404296875
508	1.162109375	18.6357319529493	0.00535797119140625	1.160888671875
509	1.15966796875	18.6601319528877	0.00532470703125	1.15875244140625
510	1.1572265625	18.6845319528261	0.00529632568359375	1.156005859375
511	1.15478515625	18.7089319527645	0.00525726318359375	1.153564453125
512	1.15234375	18.7333319527029	0.00522369384765625	1.1517333984375
513	1.14990234375	18.7577319526413	0.00519287109375	1.14898681640625
514	1.1474609375	18.7821319525797	0.00515289306640625	1.146240234375
515	1.14501953125	18.8065319525181	0.00511444091796875	1.14349365234375
516	1.142578125	18.8309319524565	0.0050640869140625	1.14166259765625
517	1.14013671875	18.8553319523949	0.00503082275390625	1.13922119140625
518	1.1376953125	18.8797319523333	0.00498046875	1.13616943359375
519	1.13525390625	18.9041319522717	0.0049365234375	1.13433837890625
520	1.1328125	18.9285319522101	0.0048760986328125	1.13128662109375
521	1.13037109375	18.9529319521484	0.0048162841796875	1.12945556640625
522	1.1279296875	18.9773319520868	0.0047705078125	1.12701416015625
523	1.12548828125	19.0017319520252	0.00469512939453125	1.12457275390625
524	1.123046875	19.0261319519636	0.004632568359375	1.12213134765625
525	1.12060546875	19.050531951902	0.004534912109375	1.1199951171875
526	1.1181640625	19.0749319518404	0.00446746826171875	1.11663818359375
527	1.11572265625	19.0993319517788	0.0043731689453125	1.11480712890625
528	1.11328125	19.1237319517172	0.00427825927734375	1.11175537109375
529	1.11083984375	19.1481319516556	0.0041619873046875	1.10931396484375
530	1.1083984375	19.172531951594	0.00402679443359375	1.107177734375
531	1.10595703125	19.1969319515324	0.00394561767578125	1.10504150390625
532	1.103515625	19.2213319514708	0.00379302978515625	1.10198974609375
533	1.10107421875	19.2457319514092	0.00368988037109375	1.099853515625
534	1.0986328125	19.2701319513476	0.0035211181640625	1.09771728515625
535	1.09619140625	19.294531951286	0.00340667724609375	1.09527587890625
536	1.09375	19.3189319512244	0.00328521728515625	1.09283447265625
537	1.09130859375	19.3433319511628	0.00314666748046875	1.0906982421875
538	1.0888671875	19.3677319511012	0.0030218505859375	1.08734130859375
539	1.08642578125	19.3921319510396	0.00285400390625	1.0858154296875
540	1.083984375	19.416531950978	0.00277740478515625	1.08306884765625
541	1.08154296875	19.4409319509164	0.0026171875	1.08062744140625
542	1.0791015625	19.4653319508548	0.00252166748046875	1.0784912109375
543	1.07666015625	19.4897319507932	0.0023638916015625	1.075439453125
544	1.07421875	19.5141319507316	0.00224090576171875	1.07330322265625
545	1.07177734375	19.5385319506699	0.00214691162109375	1.070556640625
546	1.0693359375	19.5629319506083	0.001998291015625	1.06903076171875
547	1.06689453125	19.5873319505467	0.001904296875	1.0662841796875
548	1.064453125	19.6117319504851	0.001734619140625	1.0638427734375
549	1.06201171875	19.6361319504235	0.001668701171875	1.06109619140625
550	1.0595703125	19.6605319503619	0.00152587890625	1.0589599609375
551	1.05712890625	19.6849319503003	0.0014337158203125	1.0565185546875
552	1.0546875	19.7093319502387	0.0013037109375	1.0540771484375
553	1.05224609375	19.7337319501771	0.00117431640625	1.051025390625
554	1.0498046875	19.7581319501155	0.00111236572265625	1.04949951171875
555	1.04736328125	19.7825319500539	0.0009619140625	1.04644775390625
556	1.044921875	19.8069319499923	0.00089874267578125	1.043701171875
557	1.04248046875	19.8313319499307	0.00073822021484375	1.0418701171875
558	1.0400390625	19.8557319498691	0.00067474365234375	1.03912353515625
559	1.03759765625	19.8801319498075	0.00055999755859375	1.03668212890625
560	1.03515625	19.9045319497459	0.0004608154296875	1.03424072265625
561	1.03271484375	19.9289319496843	0.0003695068359375	1.0321044921875
562	1.0302734375	19.9533319496227	0.000231231689453125	1.0296630859375
563	1.02783203125	19.9777319495611	0.000199676513671875	1.02691650390625
564	1.025390625	20.0021319494995	5.2215576171875E-05	1.024169921875
565	1.02294921875	20.0265319494379	8.23974609375E-06	1.021728515625
566	1.0205078125	20.0509319493763	-0.000131103515625	1.01959228515625
567	1.01806640625	20.0753319493147	-0.00019793701171875	1.016845703125
568	1.015625	20.0997319492531	-0.0002747802734375	1.0150146484375
569	1.01318359375	20.1241319491915	-0.000383148193359375	1.011962890625
570	1.0107421875	20.1485319491298	-0.0004327392578125	1.01043701171875
571	1.00830078125	20.1729319490682	-0.00057830810546875	1.007080078125
572	1.005859375	20.1973319490066	-0.000587158203125	1.004638671875
573	1.00341796875	20.221731948945	-0.00072174072265625	1.0028076171875
574	1.0009765625	20.2461319488834	-0.0007550048828125	0.999755859375
575	0.99853515625	20.2705319488218	-0.00086090087890625	0.99761962890625
576	0.99609375	20.2949319487602	-0.0009405517578125	0.9954833984375
577	0.99365234375	20.3193319486986	-0.00097625732421875	0.99273681640625
578	0.9912109375	20.343731948637	-0.00109771728515625	0.989990234375
579	0.98876953125	20.3681319485754	-0.00110992431640625	0.98785400390625
580	0.986328125	20.3925319485138	-0.00125213623046875	0.985107421875
581	0.98388671875	20.4169319484522	-0.00125	0.98236083984375
582	0.9814453125	20.4413319483906	-0.00135986328125	0.98052978515625
583	0.97900390625	20.465731948329	-0.0013995361328125	0.977783203125
584	0.9765625	20.4901319482674	-0.0014642333984375	0.9759521484375
585	0.97412109375	20.5145319482058	-0.00156097412109375	0.97320556640625
586	0.9716796875	20.5389319481442	-0.00155426025390625	0.97137451171875
587	0.96923828125	20.5633319480826	-0.00168365478515625	0.96832275390625
588	0.966796875	20.587731948021	-0.0016668701171875	0.96588134765625
589	0.96435546875	20.6121319479594	-0.0017962646484375	0.96405029296875
590	0.9619140625	20.6365319478978	-0.0017987060546875	0.96099853515625
591	0.95947265625	20.6609319478362	-0.00186981201171875	0.95855712890625
592	0.95703125	20.6853319477746	-0.0019293212890625	0.95611572265625
593	0.95458984375	20.709731947713	-0.001949462890625	0.953369140625
594	0.9521484375	20.7341319476513	-0.0020635986328125	0.95123291015625
595	0.94970703125	20.7585319475897	-0.00202667236328125	0.94879150390625
596	0.947265625	20.7829319475281	-0.002152099609375	0.9466552734375
597	0.94482421875	20.8073319474665	-0.00212860107421875	0.9442138671875
598	0.9423828125	20.8317319474049	-0.00222686767578125	0.94146728515625
599	0.93994140625	20.8561319473433	-0.00225128173828125	0.93963623046875
600	0.9375	20.8805319472817	-0.0022760009765625	0.93658447265625
601	0.93505859375	20.9049319472201	-0.00236114501953125	0.93414306640625
602	0.9326171875	20.9293319471585	-0.00233856201171875	0.93170166015625
603	0.93017578125	20.9537319470969	-0.00246429443359375	0.928955078125
604	0.927734375	20.9781319470353	-0.00241180419921875	0.927734375
605	0.92529296875	21.0025319469737	-0.002520751953125	0.92437744140625
606	0.9228515625	21.0269319469121	-0.0025067138671875	0.921630859375
607	0.92041015625	21.0513319468505	-0.00256622314453125	0.91949462890625
608	0.91796875	21.0757319467889	-0.00261962890625	0.916748046875
609	0.91552734375	21.1001319467273	-0.00259918212890625	0.914306640625
610	0.9130859375	21.1245319466657	-0.00270660400390625	0.9124755859375
611	0.91064453125	21.1489319466041	-0.0026531982421875	0.90972900390625
612	0.908203125	21.1733319465425	-0.0027740478515625	0.9075927734375
613	0.90576171875	21.1977319464809	-0.00272918701171875	0.904541015625
614	0.9033203125	21.2221319464193	-0.00280670166015625	0.90179443359375
615	0.90087890625	21.2465319463577	-0.002823486328125	0.89996337890625
616	0.8984375	21.2709319462961	-0.00283538818359375	0.897216796875
617	0.89599609375	21.2953319462345	-0.00292022705078125	0.89508056640625
618	0.8935546875	21.3197319461729	-0.00286346435546875	0.8917236328125
619	0.89111328125	21.3441319461112	-0.00298248291015625	0.89019775390625
620	0.888671875	21.3685319460496	-0.00292022705078125	0.8880615234375
621	0.88623046875	21.392931945988	-0.003023681640625	0.8856201171875
622	0.8837890625	21.4173319459264	-0.00300384521484375	0.88348388671875
623	0.88134765625	21.4417319458648	-0.00303741455078125	0.88043212890625
624	0.87890625	21.4661319458032	-0.003089599609375	0.87799072265625
625	0.87646484375	21.4905319457416	-0.003056640625	0.87554931640625
626	0.8740234375	21.51493194568	-0.00316375732421875	0.872802734375
627	0.87158203125	21.5393319456184	-0.0030902099609375	0.870361328125
628	0.869140625	21.5637319455568	-0.003203125	0.86822509765625
629	0.86669921875	21.5881319454952	-0.003154296875	0.865478515625
630	0.8642578125	21.6125319454336	-0.00322265625	0.86334228515625
631	0.86181640625	21.636931945372	-0.00324127197265625	0.860595703125
632	0.859375	21.6613319453104	-0.00322906494140625	0.85845947265625
633	0.85693359375	21.6857319452488	-0.00331268310546875	0.8563232421875
634	0.8544921875	21.7101319451872	-0.00325103759765625	0.85357666015625
635	0.85205078125	21.7345319451256	-0.0033685302734375	0.850830078125
636	0.849609375	21.758931945064	-0.00329803466796875	0.848388671875
637	0.84716796875	21.7833319450024	-0.00338836669921875	0.845947265625
638	0.8447265625	21.8077319449408	-0.00336822509765625	0.84381103515625
639	0.84228515625	21.8321319448792	-0.0033917236328125	0.84136962890625
640	0.83984375	21.8565319448176	-0.003447265625	0.8392333984375
641	0.83740234375	21.880931944756	-0.0033953857421875	0.836181640625
642	0.8349609375	21.9053319446944	-0.003502197265625	0.83404541015625
643	0.83251953125	21.9297319446327	-0.00342498779296875	0.8319091796875
644	0.830078125	21.9541319445711	-0.00353363037109375	0.828857421875
645	0.82763671875	21.9785319445095	-0.00348388671875	0.8270263671875
646	0.8251953125	22.0029319444479	-0.0035345458984375	0.82427978515625
647	0.82275390625	22.0273319443863	-0.00355377197265625	0.8221435546875
648	0.8203125	22.0517319443247	-0.00353271484375	0.819091796875
649	0.81787109375	22.0761319442631	-0.00362091064453125	0.81695556640625
650	0.8154296875	22.1005319442015	-0.0035430908203125	0.81451416015625
651	0.81298828125	22.1249319441399	-0.00365478515625	0.8123779296875
652	0.810546875	22.1493319440783	-0.00358489990234375	0.8099365234375
653	0.80810546875	22.1737319440167	-0.00366424560546875	0.80718994140625
654	0.8056640625	22.1981319439551	-0.00364990234375	0.80474853515625
655	0.80322265625	22.2225319438935	-0.00365570068359375	0.80230712890625
656	0.80078125	22.2469319438319	-0.00371490478515625	0.79986572265625
657	0.79833984375	22.2713319437703	-0.00365570068359375	0.79742431640625
658	0.7958984375	22.2957319437087	-0.0037628173828125	0.79559326171875
659	0.79345703125	22.3201319436471	-0.00367919921875	0.79254150390625
660	0.791015625	22.3445319435855	-0.00377532958984375	0.7904052734375
661	0.78857421875	22.3689319435239	-0.00373046875	0.78765869140625
662	0.7861328125	22.3933319434623	-0.0037701416015625	0.78521728515625
663	0.78369140625	22.4177319434007	-0.003795166015625	0.7830810546875
664	0.78125	22.4421319433391	-0.0037567138671875	0.78094482421875
665	0.77880859375	22.4665319432775	-0.00384521484375	0.77789306640625
666	0.7763671875	22.4909319432159	-0.00376678466796875	0.77545166015625
667	0.77392578125	22.5153319431543	-0.00387237548828125	0.77301025390625
668	0.771484375	22.5397319430926	-0.0038037109375	0.77117919921875
669	0.76904296875	22.564131943031	-0.00386810302734375	0.76812744140625
670	0.7666015625	22.5885319429694	-0.00385986328125	0.76568603515625
671	0.76416015625	22.6129319429078	-0.00385467529296875	0.7635498046875
672	0.76171875	22.6373319428462	-0.00391845703125	0.7611083984375
673	0.75927734375	22.6617319427846	-0.00384857177734375	0.75836181640625
674	0.7568359375	22.686131942723	-0.00395111083984375	0.75592041015625
675	0.75439453125	22.7105319426614	-0.00387176513671875	0.75347900390625
676	0.751953125	22.7349319425998	-0.00395721435546875	0.75103759765625
677	0.74951171875	22.7593319425382	-0.00391937255859375	0.74859619140625
678	0.7470703125	22.7837319424766	-0.00394012451171875	0.7474365234375
679	0.74462890625	22.808131942415	-0.00397705078125	0.7451171875
680	0.7421875	22.8325319423534	-0.0039300537109375	0.742584228515625
681	0.73974609375	22.8569319422918	-0.00402130126953125	0.740264892578125
682	0.7373046875	22.8813319422302	-0.0039361572265625	0.73773193359375
683	0.73486328125	22.9057319421686	-0.00403106689453125	0.7353515625
684	0.732421875	22.930131942107	-0.00397216796875	0.732879638671875
685	0.72998046875	22.9545319420454	-0.00402252197265625	0.730499267578125
686	0.7275390625	22.9789319419838	-0.00402496337890625	0.728118896484375
687	0.72509765625	23.0033319419222	-0.00400146484375	0.72552490234375
688	0.72265625	23.0277319418606	-0.00407073974609375	0.723236083984375
689	0.72021484375	23.052131941799	-0.00399749755859375	0.72064208984375
690	0.7177734375	23.0765319417374	-0.0040948486328125	0.718292236328125
691	0.71533203125	23.1009319416758	-0.00401763916015625	0.7158203125
692	0.712890625	23.1253319416141	-0.00408843994140625	0.713348388671875
693	0.71044921875	23.1497319415525	-0.0040618896484375	0.71099853515625
694	0.7080078125	23.1741319414909	-0.00407012939453125	0.70849609375
695	0.70556640625	23.1985319414293	-0.004111328125	0.70611572265625
696	0.703125	23.2229319413677	-0.00405303955078125	0.703643798828125
697	0.70068359375	23.2473319413061	-0.00414215087890625	0.701324462890625
698	0.6982421875	23.2717319412445	-0.0040606689453125	0.69873046875
699	0.69580078125	23.2961319411829	-0.00414703369140625	0.69635009765625
700	0.693359375	23.3205319411213	-0.00409454345703125	0.69390869140625
701	0.69091796875	23.3449319410597	-0.004129638671875	0.691436767578125
702	0.6884765625	23.3693319409981	-0.00414154052734375	0.6890869140625
703	0.68603515625	23.3937319409365	-0.00411102294921875	0.68658447265625
704	0.68359375	23.4181319408749	-0.0041827392578125	0.684295654296875
705	0.68115234375	23.4425319408133	-0.0041046142578125	0.681671142578125
706	0.6787109375	23.4669319407517	-0.00419464111328125	0.67938232421875
707	0.67626953125	23.4913319406901	-0.00412567138671875	0.67681884765625
708	0.673828125	23.5157319406285	-0.00418487548828125	0.674407958984375
709	0.67138671875	23.5401319405669	-0.0041680908203125	0.6719970703125
710	0.6689453125	23.5645319405053	-0.004161376953125	0.669525146484375
711	0.66650390625	23.5889319404437	-0.00420989990234375	0.66717529296875
712	0.6640625	23.6133319403821	-0.00414764404296875	0.66461181640625
713	0.66162109375	23.6377319403205	-0.00423583984375	0.662322998046875
714	0.6591796875	23.6621319402589	-0.00415557861328125	0.659698486328125
715	0.65673828125	23.6865319401973	-0.00423126220703125	0.657318115234375
716	0.654296875	23.7109319401357	-0.00418792724609375	0.6549072265625
717	0.65185546875	23.735331940074	-0.00421142578125	0.652496337890625
718	0.6494140625	23.7597319400124	-0.004232177734375	0.65008544921875
719	0.64697265625	23.7841319399508	-0.00418914794921875	0.64752197265625
720	0.64453125	23.8085319398892	-0.00426177978515625	0.645172119140625
721	0.64208984375	23.8329319398276	-0.00418548583984375	0.642608642578125
722	0.6396484375	23.857331939766	-0.00426971435546875	0.640289306640625
723	0.63720703125	23.8817319397044	-0.00420623779296875	0.63787841796875
724	0.634765625	23.9061319396428	-0.00425445556640625	0.6353759765625
725	0.63232421875	23.9305319395812	-0.00424591064453125	0.63299560546875
726	0.6298828125	23.9549319395196	-0.00423065185546875	0.6304931640625
727	0.62744140625	23.979331939458	-0.0042840576171875	0.628204345703125
728	0.625	24.0037319393964	-0.00421600341796875	0.625579833984375
729	0.62255859375	24.0281319393348	-0.0043011474609375	0.623291015625
730	0.6201171875	24.0525319392732	-0.004227294921875	0.6207275390625
731	0.61767578125	24.0769319392116	-0.00429473876953125	0.6182861328125
732	0.615234375	24.10133193915	-0.00425994873046875	0.615875244140625
733	0.61279296875	24.1257319390884	-0.00427093505859375	0.613372802734375
734	0.6103515625	24.1501319390268	-0.0042974853515625	0.611083984375
735	0.60791015625	24.1745319389652	-0.0042510986328125	0.6085205078125
736	0.60546875	24.1989319389036	-0.00432525634765625	0.606201171875
737	0.60302734375	24.223331938842	-0.00424896240234375	0.603607177734375
738	0.6005859375	24.2477319387804	-0.00432708740234375	0.601287841796875
739	0.59814453125	24.2721319387188	-0.0042724609375	0.598785400390625
740	0.595703125	24.2965319386572	-0.004310302734375	0.59637451171875
741	0.59326171875	24.3209319385955	-0.00431121826171875	0.59393310546875
742	0.5908203125	24.3453319385339	-0.0042864990234375	0.59149169921875
743	0.58837890625	24.3697319384723	-0.00434326171875	0.58917236328125
744	0.5859375	24.3941319384107	-0.0042755126953125	0.586517333984375
745	0.58349609375	24.4185319383491	-0.00435638427734375	0.58416748046875
746	0.5810546875	24.4429319382875	-0.004287109375	0.581756591796875
747	0.57861328125	24.4673319382259	-0.00434417724609375	0.57928466796875
748	0.576171875	24.4917319381643	-0.004317626953125	0.57684326171875
749	0.57373046875	24.5161319381027	-0.00432037353515625	0.574371337890625
750	0.5712890625	24.5405319380411	-0.00435302734375	0.57208251953125
751	0.56884765625	24.5649319379795	-0.0042987060546875	0.56951904296875
752	0.56640625	24.5893319379179	-0.00437347412109375	0.567169189453125
753	0.56396484375	24.6137319378563	-0.0042999267578125	0.564666748046875
754	0.5615234375	24.6381319377947	-0.00437225341796875	0.562225341796875
755	0.55908203125	24.6625319377331	-0.00432403564453125	0.55975341796875
756	0.556640625	24.6869319376715	-0.0043511962890625	0.55731201171875
757	0.55419921875	24.7113319376099	-0.0043597412109375	0.554931640625
758	0.5517578125	24.7357319375483	-0.0043280029296875	0.55242919921875
759	0.54931640625	24.7601319374867	-0.0043890380859375	0.550018310546875
760	0.546875	24.7845319374251	-0.004320068359375	0.5474853515625
761	0.54443359375	24.8089319373635	-0.00439605712890625	0.545166015625
762	0.5419921875	24.8333319373019	-0.00433258056640625	0.542694091796875
763	0.53955078125	24.8577319372403	-0.00438232421875	0.540252685546875
764	0.537109375	24.8821319371787	-0.004364013671875	0.537841796875
765	0.53466796875	24.9065319371171	-0.00435791015625	0.535308837890625
766	0.5322265625	24.9309319370554	-0.00439666748046875	0.533050537109375
767	0.52978515625	24.9553319369938	-0.00433990478515625	0.53045654296875
768	0.52734375	24.9797319369322	-0.00441375732421875	0.528076171875
769	0.52490234375	25.0041319368706	-0.00434112548828125	0.525604248046875
770	0.5224609375	25.028531936809	-0.0044061279296875	0.523193359375
771	0.52001953125	25.0529319367474	-0.004364013671875	0.520782470703125
772	0.517578125	25.0773319366858	-0.00438385009765625	0.518218994140625
773	0.51513671875	25.1017319366242	-0.00439788818359375	0.515899658203125
774	0.5126953125	25.1261319365626	-0.00435943603515625	0.51336669921875
775	0.51025390625	25.150531936501	-0.00442230224609375	0.51104736328125
776	0.5078125	25.1749319364394	-0.00435211181640625	0.508514404296875
777	0.50537109375	25.1993319363778	-0.0044256591796875	0.506134033203125
778	0.5029296875	25.2237319363162	-0.00436676025390625	0.503662109375
779	0.50048828125	25.2481319362546	-0.0044073486328125	0.501190185546875
780	0.498046875	25.272531936193	-0.00439697265625	0.498809814453125
781	0.49560546875	25.2969319361314	-0.0043829345703125	0.49627685546875
782	0.4931640625	25.3213319360698	-0.0044281005859375	0.49395751953125
783	0.49072265625	25.3457319360082	-0.004366455078125	0.49139404296875
784	0.48828125	25.3701319359466	-0.00443939208984375	0.48907470703125
785	0.48583984375	25.394531935885	-0.004371337890625	0.486572265625
786	0.4833984375	25.4189319358234	-0.00442962646484375	0.484161376953125
787	0.48095703125	25.4433319357618	-0.00439605712890625	0.48175048828125
788	0.478515625	25.4677319357002	-0.00440521240234375	0.479156494140625
789	0.47607421875	25.4921319356386	-0.004427490234375	0.47686767578125
790	0.4736328125	25.5165319355769	-0.0043841552734375	0.474334716796875
791	0.47119140625	25.5409319355153	-0.00444915771484375	0.47198486328125
792	0.46875	25.5653319354537	-0.00437744140625	0.469390869140625
793	0.46630859375	25.5897319353921	-0.00444671630859375	0.467071533203125
794	0.4638671875	25.6141319353305	-0.0043939208984375	0.464599609375
795	0.46142578125	25.6385319352689	-0.00442840576171875	0.462127685546875
796	0.458984375	25.6629319352073	-0.00442596435546875	0.45977783203125
797	0.45654296875	25.6873319351457	-0.004403076171875	0.457305908203125
798	0.4541015625	25.7117319350841	-0.004453125	0.454925537109375
799	0.45166015625	25.7361319350225	-0.00438873291015625	0.452362060546875
800	0.44921875	25.7605319349609	-0.004461669921875	0.449951171875
801	0.44677734375	25.7849319348993	-0.00439483642578125	0.447540283203125
802	0.4443359375	25.8093319348377	-0.0044482421875	0.445068359375
803	0.44189453125	25.8337319347761	-0.0044219970703125	0.44268798828125
804	0.439453125	25.8581319347145	-0.0044244384765625	0.440185546875
805	0.43701171875	25.8825319346529	-0.004453125	0.43780517578125
806	0.4345703125	25.9069319345913	-0.0044024658203125	0.435302734375
807	0.43212890625	25.9313319345297	-0.00446929931640625	0.43292236328125
808	0.4296875	25.9557319344681	-0.0043994140625	0.430419921875
809	0.42724609375	25.9801319344065	-0.0044647216796875	0.428070068359375
810	0.4248046875	26.0045319343449	-0.004417724609375	0.425628662109375
811	0.42236328125	26.0289319342833	-0.004443359375	0.423065185546875
812	0.419921875	26.0533319342217	-0.0044488525390625	0.4207763671875
813	0.41748046875	26.0777319341601	-0.00441864013671875	0.41827392578125
814	0.4150390625	26.1021319340985	-0.00447357177734375	0.415863037109375
815	0.41259765625	26.1265319340368	-0.0044061279296875	0.413330078125
816	0.41015625	26.1509319339752	-0.00447723388671875	0.4110107421875
817	0.40771484375	26.1753319339136	-0.00441619873046875	0.40850830078125
818	0.4052734375	26.199731933852	-0.0044622802734375	0.40606689453125
819	0.40283203125	26.2241319337904	-0.00444366455078125	0.40362548828125
820	0.400390625	26.2485319337288	-0.0044366455078125	0.401153564453125
821	0.39794921875	26.2729319336672	-0.00447235107421875	0.398834228515625
822	0.3955078125	26.2973319336056	-0.004417724609375	0.396209716796875
823	0.39306640625	26.321731933544	-0.0044866943359375	0.39385986328125
824	0.390625	26.3461319334824	-0.00441802978515625	0.39141845703125
825	0.38818359375	26.3705319334208	-0.00447784423828125	0.38897705078125
826	0.3857421875	26.3949319333592	-0.0044384765625	0.386566162109375
827	0.38330078125	26.4193319332976	-0.00445465087890625	0.38409423828125
828	0.380859375	26.443731933236	-0.00446807861328125	0.381683349609375
829	0.37841796875	26.4681319331744	-0.00442962646484375	0.37921142578125
830	0.3759765625	26.4925319331128	-0.00448883056640625	0.3768310546875
831	0.37353515625	26.5169319330512	-0.00442169189453125	0.374298095703125
832	0.37109375	26.5413319329896	-0.00449005126953125	0.371917724609375
833	0.36865234375	26.565731932928	-0.00443359375	0.36944580078125
834	0.3662109375	26.5901319328664	-0.00447052001953125	0.36700439453125
835	0.36376953125	26.6145319328048	-0.0044610595703125	0.364593505859375
836	0.361328125	26.6389319327432	-0.00444488525390625	0.362060546875
837	0.35888671875	26.6633319326816	-0.00448822021484375	0.359710693359375
838	0.3564453125	26.68773193262	-0.00442779541015625	0.357208251953125
839	0.35400390625	26.7121319325583	-0.0044976806640625	0.354827880859375
840	0.3515625	26.7365319324967	-0.00443145751953125	0.35235595703125
841	0.34912109375	26.7609319324351	-0.004486083984375	0.349945068359375
842	0.3466796875	26.7853319323735	-0.0044549560546875	0.34747314453125
843	0.34423828125	26.8097319323119	-0.0044610595703125	0.34503173828125
844	0.341796875	26.8341319322503	-0.00448394775390625	0.34271240234375
845	0.33935546875	26.8585319321887	-0.004439697265625	0.340087890625
846	0.3369140625	26.8829319321271	-0.00450225830078125	0.33770751953125
847	0.33447265625	26.9073319320655	-0.00443389892578125	0.335205078125
848	0.33203125	26.9317319320039	-0.00449859619140625	0.332855224609375
849	0.32958984375	26.9561319319423	-0.004449462890625	0.330413818359375
850	0.3271484375	26.9805319318807	-0.004478759765625	0.327911376953125
851	0.32470703125	27.0049319318191	-0.004478759765625	0.3255615234375
852	0.322265625	27.0293319317575	-0.0044537353515625	0.32305908203125
853	0.31982421875	27.0537319316959	-0.004503173828125	0.320709228515625
854	0.3173828125	27.0781319316343	-0.00444000244140625	0.31817626953125
855	0.31494140625	27.1025319315727	-0.00450958251953125	0.315765380859375
856	0.3125	27.1269319315111	-0.00444732666015625	0.31329345703125
857	0.31005859375	27.1513319314495	-0.00449462890625	0.31085205078125
858	0.3076171875	27.1757319313879	-0.00447174072265625	0.3084716796875
859	0.30517578125	27.2001319313263	-0.00447021484375	0.305938720703125
860	0.302734375	27.2245319312647	-0.00450103759765625	0.3035888671875
861	0.30029296875	27.2489319312031	-0.004449462890625	0.301116943359375
862	0.2978515625	27.2733319311415	-0.00451507568359375	0.298675537109375
863	0.29541015625	27.2977319310799	-0.0044476318359375	0.296173095703125
864	0.29296875	27.3221319310182	-0.0045074462890625	0.2938232421875
865	0.29052734375	27.3465319309566	-0.00446563720703125	0.291351318359375
866	0.2880859375	27.370931930895	-0.00448455810546875	0.288848876953125
867	0.28564453125	27.3953319308334	-0.00449371337890625	0.2864990234375
868	0.283203125	27.4197319307718	-0.00446075439453125	0.284027099609375
869	0.28076171875	27.4441319307102	-0.00451568603515625	0.2816162109375
870	0.2783203125	27.4685319306486	-0.00444915771484375	0.279144287109375
871	0.27587890625	27.492931930587	-0.0045172119140625	0.2767333984375
872	0.2734375	27.5173319305254	-0.00446014404296875	0.27423095703125
873	0.27099609375	27.5417319304638	-0.00449951171875	0.271820068359375
874	0.2685546875	27.5661319304022	-0.0044866943359375	0.26934814453125
875	0.26611328125	27.5905319303406	-0.0044744873046875	0.266937255859375
876	0.263671875	27.614931930279	-0.0045135498046875	0.26458740234375
877	0.26123046875	27.6393319302174	-0.0044573974609375	0.262054443359375
878	0.2587890625	27.6637319301558	-0.00452423095703125	0.259674072265625
879	0.25634765625	27.6881319300942	-0.0044580078125	0.257171630859375
880	0.25390625	27.7125319300326	-0.004512939453125	0.2547607421875
881	0.25146484375	27.736931929971	-0.00447906494140625	0.2523193359375
882	0.2490234375	27.7613319299094	-0.00449005126953125	0.249847412109375
883	0.24658203125	27.7857319298478	-0.0045086669921875	0.247467041015625
884	0.244140625	27.8101319297862	-0.0044671630859375	0.24493408203125
885	0.24169921875	27.8345319297246	-0.00452667236328125	0.2425537109375
886	0.2392578125	27.858931929663	-0.0044598388671875	0.24005126953125
887	0.23681640625	27.8833319296014	-0.004525146484375	0.2376708984375
888	0.234375	27.9077319295398	-0.00447418212890625	0.23516845703125
889	0.23193359375	27.9321319294781	-0.00450592041015625	0.232757568359375
890	0.2294921875	27.9565319294165	-0.00450164794921875	0.230316162109375
891	0.22705078125	27.9809319293549	-0.004481201171875	0.22784423828125
892	0.224609375	28.0053319292933	-0.00452667236328125	0.22552490234375
893	0.22216796875	28.0297319292317	-0.0044647216796875	0.222930908203125
894	0.2197265625	28.0541319291701	-0.00453216552734375	0.2205810546875
895	0.21728515625	28.0785319291085	-0.0044696044921875	0.218109130859375
896	0.21484375	28.1029319290469	-0.00451873779296875	0.215606689453125
897	0.21240234375	28.1273319289853	-0.00449310302734375	0.21319580078125
898	0.2099609375	28.1517319289237	-0.0044927978515625	0.210784912109375
899	0.20751953125	28.1761319288621	-0.00451934814453125	0.20843505859375
900	0.205078125	28.2005319288005	-0.00447113037109375	0.205841064453125
901	0.20263671875	28.2249319287389	-0.00453399658203125	0.203521728515625
902	0.2001953125	28.2493319286773	-0.00446685791015625	0.201019287109375
903	0.19775390625	28.2737319286157	-0.00452789306640625	0.198638916015625
904	0.1953125	28.2981319285541	-0.00448394775390625	0.1961669921875
905	0.19287109375	28.3225319284925	-0.00450592041015625	0.1937255859375
906	0.1904296875	28.3469319284309	-0.00451171875	0.1912841796875
907	0.18798828125	28.3713319283693	-0.00448150634765625	0.18878173828125
908	0.185546875	28.3957319283077	-0.00453338623046875	0.18646240234375
909	0.18310546875	28.4201319282461	-0.0044696044921875	0.1839599609375
910	0.1806640625	28.4445319281845	-0.0045355224609375	0.18157958984375
911	0.17822265625	28.4689319281229	-0.0044781494140625	0.1790771484375
912	0.17578125	28.4933319280613	-0.00451934814453125	0.17657470703125
913	0.17333984375	28.5177319279996	-0.00450347900390625	0.1741943359375
914	0.1708984375	28.542131927938	-0.00449493408203125	0.1717529296875
915	0.16845703125	28.5665319278764	-0.00453033447265625	0.169342041015625
916	0.166015625	28.5909319278148	-0.004476318359375	0.166839599609375
917	0.16357421875	28.6153319277532	-0.00454193115234375	0.16448974609375
918	0.1611328125	28.6397319276916	-0.0044775390625	0.1619873046875
919	0.15869140625	28.66413192763	-0.0045343017578125	0.159576416015625
920	0.15625	28.6885319275684	-0.004498291015625	0.1571044921875
921	0.15380859375	28.7129319275068	-0.00451171875	0.154632568359375
922	0.1513671875	28.7373319274452	-0.0045269775390625	0.1522216796875
923	0.14892578125	28.7617319273836	-0.00448974609375	0.14971923828125
924	0.146484375	28.786131927322	-0.0045465087890625	0.14739990234375
925	0.14404296875	28.8105319272604	-0.00448150634765625	0.144805908203125
926	0.1416015625	28.8349319271988	-0.0045458984375	0.14251708984375
927	0.13916015625	28.8593319271372	-0.0044940185546875	0.14007568359375
928	0.13671875	28.8837319270756	-0.004527587890625	0.137542724609375
929	0.13427734375	28.908131927014	-0.00451995849609375	0.135223388671875
930	0.1318359375	28.9325319269524	-0.00450225830078125	0.132659912109375
931	0.12939453125	28.9569319268908	-0.00454498291015625	0.130340576171875
932	0.126953125	28.9813319268292	-0.0044873046875	0.1278076171875
933	0.12451171875	29.0057319267676	-0.0045526123046875	0.12542724609375
934	0.1220703125	29.030131926706	-0.00449005126953125	0.1229248046875
935	0.11962890625	29.0545319266444	-0.00453948974609375	0.120513916015625
936	0.1171875	29.0789319265828	-0.00451141357421875	0.118072509765625
937	0.11474609375	29.1033319265212	-0.004515380859375	0.115631103515625
938	0.1123046875	29.1277319264595	-0.0045391845703125	0.11328125
939	0.10986328125	29.1521319263979	-0.00449462890625	0.110748291015625
940	0.107421875	29.1765319263363	-0.0045550537109375	0.10833740234375
941	0.10498046875	29.2009319262747	-0.00448974609375	0.105865478515625
942	0.1025390625	29.2253319262131	-0.00455108642578125	0.10345458984375
943	0.10009765625	29.2497319261515	-0.004505615234375	0.101043701171875
944	0.09765625	29.2741319260899	-0.00453094482421875	0.098541259765625
945	0.09521484375	29.2985319260283	-0.004532470703125	0.09613037109375
946	0.0927734375	29.3229319259667	-0.0045068359375	0.0936279296875
947	0.09033203125	29.3473319259051	-0.00455596923828125	0.091217041015625
948	0.087890625	29.3717319258435	-0.00449462890625	0.08880615234375
949	0.08544921875	29.3961319257819	-0.004559326171875	0.08636474609375
950	0.0830078125	29.4205319257203	-0.0045013427734375	0.083892822265625
951	0.08056640625	29.4449319256587	-0.0045440673828125	0.081390380859375
952	0.078125	29.4693319255971	-0.00452545166015625	0.079071044921875
953	0.07568359375	29.4937319255355	-0.004520263671875	0.076568603515625
954	0.0732421875	29.5181319254739	-0.00455230712890625	0.074188232421875
955	0.07080078125	29.5425319254123	-0.0045025634765625	0.071624755859375
956	0.068359375	29.5669319253507	-0.00456573486328125	0.069305419921875
957	0.06591796875	29.5913319252891	-0.00450164794921875	0.0667724609375
958	0.0634765625	29.6157319252275	-0.00455841064453125	0.064361572265625
959	0.06103515625	29.6401319251659	-0.004520263671875	0.061920166015625
960	0.05859375	29.6645319251043	-0.00453704833984375	0.059478759765625
961	0.05615234375	29.6889319250427	-0.00454833984375	0.05712890625
962	0.0537109375	29.713331924981	-0.00451446533203125	0.05462646484375
963	0.05126953125	29.7377319249194	-0.00456878662109375	0.052215576171875
964	0.048828125	29.7621319248578	-0.00450592041015625	0.0496826171875
965	0.04638671875	29.7865319247962	-0.00457000732421875	0.0466552734375
966	0.0439453125	29.8109319247346	-0.00451568603515625	0.0441558837890625
967	0.04150390625	29.835331924673	-0.00455291748046875	0.04173583984375
968	0.0390625	29.8597319246114	-0.00454132080078125	0.039288330078125
969	0.03662109375	29.8841319245498	-0.00452972412109375	0.0367950439453125
970	0.0341796875	29.9085319244882	-0.0045672607421875	0.0344451904296875
971	0.03173828125	29.9329319244266	-0.0045123291015625	0.03192138671875
972	0.029296875	29.957331924365	-0.004576416015625	0.0295654296875
973	0.02685546875	29.9817319243034	-0.00451446533203125	0.02705078125
974	0.0244140625	30.0061319242418	-0.00456634521484375	0.02464599609375
975	0.02197265625	30.0305319241802	-0.00453460693359375	0.022186279296875
976	0.01953125	30.0549319241186	-0.00454345703125	0.0197265625
977	0.01708984375	30.079331924057	-0.004561767578125	0.017340087890625
978	0.0146484375	30.1037319239954	-0.00452178955078125	0.01483154296875
979	0.01220703125	30.1281319239338	-0.00457855224609375	0.0124755859375
980	0.009765625	30.1525319238722	-0.00451446533203125	0.009967041015625
981	0.00732421875	30.1769319238106	-0.00457550048828125	0.00757446289062499
982	0.0048828125	30.201331923749	-0.00452789306640625	0.00509033203125001
983	0.00244140625	30.2257319236874	-0.004556884765625	0.002642822265625
984	0	30.2501319236258	-0.004554443359375	0.0002288818359375
985	0.00244140625	30.2745319235642	-0.00453125	0.00263366699218751
986	0.0048828125	30.2989319235026	-0.00457427978515625	0.00516662597656251
