Index	Potential applied (V)	Time (s)	WE(1).Current (A)	WE(1).Potential (V)
1	0.00244140625	229.932074419477	8.8714599609375E-08	0.0026092529296875
2	0.0048828125	229.956474419416	1.54022216796875E-07	0.0050384521484375
3	0.00732421875	229.980874419354	2.2650146484375E-07	0.0074951171875
4	0.009765625	230.005274419293	3.1365966796875E-07	0.00992736816406251
5	0.01220703125	230.029674419231	4.0283203125E-07	0.012335205078125
6	0.0146484375	230.054074419169	4.74853515625E-07	0.0147979736328125
7	0.01708984375	230.078474419108	5.4473876953125E-07	0.0172027587890625
8	0.01953125	230.102874419046	6.25E-07	0.0196868896484375
9	0.02197265625	230.127274418984	7.147216796875E-07	0.0221160888671875
10	0.0244140625	230.151674418923	7.965087890625E-07	0.02454833984375
11	0.02685546875	230.176074418861	8.660888671875E-07	0.027008056640625
12	0.029296875	230.2004744188	9.5458984375E-07	0.029412841796875
13	0.03173828125	230.224874418738	1.0406494140625E-06	0.0318817138671875
14	0.0341796875	230.249274418676	1.14013671875E-06	0.0343170166015625
15	0.03662109375	230.273674418615	1.21124267578125E-06	0.036749267578125
16	0.0390625	230.298074418553	1.28265380859375E-06	0.0391937255859375
17	0.04150390625	230.322474418492	1.357421875E-06	0.0416351318359375
18	0.0439453125	230.34687441843	1.458740234375E-06	0.0440826416015625
19	0.04638671875	230.371274418368	1.56463623046875E-06	0.046539306640625
20	0.048828125	230.395674418307	1.6351318359375E-06	0.0489501953125
21	0.05126953125	230.420074418245	1.71417236328125E-06	0.05108642578125
22	0.0537109375	230.444474418184	1.79534912109375E-06	0.053497314453125
23	0.05615234375	230.468874418122	1.89056396484375E-06	0.055908203125
24	0.05859375	230.49327441806	1.9647216796875E-06	0.058349609375
25	0.06103515625	230.517674417999	2.0391845703125E-06	0.060760498046875
26	0.0634765625	230.542074417937	2.13531494140625E-06	0.063201904296875
27	0.06591796875	230.566474417876	2.20184326171875E-06	0.065673828125
28	0.068359375	230.590874417814	2.3046875E-06	0.067962646484375
29	0.07080078125	230.615274417752	2.35107421875E-06	0.070465087890625
30	0.0732421875	230.639674417691	2.410888671875E-06	0.072845458984375
31	0.07568359375	230.664074417629	2.48748779296875E-06	0.07525634765625
32	0.078125	230.688474417568	2.5714111328125E-06	0.077728271484375
33	0.08056640625	230.712874417506	2.67547607421875E-06	0.08013916015625
34	0.0830078125	230.737274417444	2.77984619140625E-06	0.08258056640625
35	0.08544921875	230.761674417383	2.85675048828125E-06	0.0849609375
36	0.087890625	230.786074417321	2.95867919921875E-06	0.087371826171875
37	0.09033203125	230.81047441726	3.07708740234375E-06	0.089752197265625
38	0.0927734375	230.834874417198	3.1561279296875E-06	0.0927734375
39	0.09521484375	230.859274417136	3.23089599609375E-06	0.09521484375
40	0.09765625	230.883674417075	3.30657958984375E-06	0.097686767578125
41	0.10009765625	230.908074417013	3.4228515625E-06	0.100067138671875
42	0.1025390625	230.932474416952	3.52752685546875E-06	0.102508544921875
43	0.10498046875	230.95687441689	3.582763671875E-06	0.105010986328125
44	0.107421875	230.981274416828	3.64410400390625E-06	0.10736083984375
45	0.10986328125	231.005674416767	3.782958984375E-06	0.109893798828125
46	0.1123046875	231.030074416705	3.89739990234375E-06	0.112274169921875
47	0.11474609375	231.054474416644	3.9532470703125E-06	0.11468505859375
48	0.1171875	231.078874416582	4.0179443359375E-06	0.11712646484375
49	0.11962890625	231.10327441652	4.073486328125E-06	0.11962890625
50	0.1220703125	231.127674416459	4.210205078125E-06	0.1220703125
51	0.12451171875	231.152074416397	4.31060791015625E-06	0.12445068359375
52	0.126953125	231.176474416336	4.3756103515625E-06	0.126922607421875
53	0.12939453125	231.200874416274	4.46533203125E-06	0.12933349609375
54	0.1318359375	231.225274416212	4.57122802734375E-06	0.131805419921875
55	0.13427734375	231.249674416151	4.64569091796875E-06	0.134246826171875
56	0.13671875	231.274074416089	4.76348876953125E-06	0.13665771484375
57	0.13916015625	231.298474416027	4.82147216796875E-06	0.139129638671875
58	0.1416015625	231.322874415966	4.871826171875E-06	0.14154052734375
59	0.14404296875	231.347274415904	5.0506591796875E-06	0.14398193359375
60	0.146484375	231.371674415843	5.13916015625E-06	0.1463623046875
61	0.14892578125	231.396074415781	5.2001953125E-06	0.14886474609375
62	0.1513671875	231.420474415719	5.303955078125E-06	0.151275634765625
63	0.15380859375	231.444874415658	5.43212890625E-06	0.15374755859375
64	0.15625	231.469274415596	5.572509765625E-06	0.1561279296875
65	0.15869140625	231.493674415535	5.657958984375E-06	0.158599853515625
66	0.1611328125	231.518074415473	5.743408203125E-06	0.16107177734375
67	0.16357421875	231.542474415411	5.810546875E-06	0.16351318359375
68	0.166015625	231.56687441535	5.9326171875E-06	0.1658935546875
69	0.16845703125	231.591274415288	5.999755859375E-06	0.168304443359375
70	0.1708984375	231.615674415227	6.146240234375E-06	0.17083740234375
71	0.17333984375	231.640074415165	6.23779296875E-06	0.1732177734375
72	0.17578125	231.664474415103	6.3079833984375E-06	0.17572021484375
73	0.17822265625	231.688874415042	6.43310546875E-06	0.17816162109375
74	0.1806640625	231.71327441498	6.5643310546875E-06	0.180572509765625
75	0.18310546875	231.737674414919	6.6619873046875E-06	0.18304443359375
76	0.185546875	231.762074414857	6.7413330078125E-06	0.185455322265625
77	0.18798828125	231.786474414795	6.84814453125E-06	0.1878662109375
78	0.1904296875	231.810874414734	6.939697265625E-06	0.190277099609375
79	0.19287109375	231.835274414672	7.1014404296875E-06	0.19268798828125
80	0.1953125	231.859674414611	7.1563720703125E-06	0.1951904296875
81	0.19775390625	231.884074414549	7.281494140625E-06	0.197662353515625
82	0.2001953125	231.908474414487	7.415771484375E-06	0.2000732421875
83	0.20263671875	231.932874414426	7.5714111328125E-06	0.2025146484375
84	0.205078125	231.957274414364	7.7484130859375E-06	0.2049560546875
85	0.20751953125	231.981674414303	7.7972412109375E-06	0.207366943359375
86	0.2099609375	232.006074414241	7.8369140625E-06	0.209747314453125
87	0.21240234375	232.030474414179	7.928466796875E-06	0.212310791015625
88	0.21484375	232.054874414118	8.056640625E-06	0.2147216796875
89	0.21728515625	232.079274414056	8.1390380859375E-06	0.217132568359375
90	0.2197265625	232.103674413995	8.2794189453125E-06	0.219573974609375
91	0.22216796875	232.128074413933	8.3892822265625E-06	0.2220458984375
92	0.224609375	232.152474413871	8.502197265625E-06	0.2244873046875
93	0.22705078125	232.17687441381	8.65478515625E-06	0.2269287109375
94	0.2294921875	232.201274413748	8.7493896484375E-06	0.229339599609375
95	0.23193359375	232.225674413687	8.8958740234375E-06	0.231842041015625
96	0.234375	232.250074413625	8.984375E-06	0.234222412109375
97	0.23681640625	232.274474413563	9.075927734375E-06	0.236602783203125
98	0.2392578125	232.298874413502	9.1094970703125E-06	0.239105224609375
99	0.24169921875	232.32327441344	9.2071533203125E-06	0.241546630859375
100	0.244140625	232.347674413379	9.466552734375E-06	0.243988037109375
101	0.24658203125	232.372074413317	9.5458984375E-06	0.246429443359375
102	0.2490234375	232.396474413255	9.7930908203125E-06	0.248870849609375
103	0.25146484375	232.420874413194	9.8175048828125E-06	0.2513427734375
104	0.25390625	232.445274413132	9.9395751953125E-06	0.25372314453125
105	0.25634765625	232.46967441307	9.9761962890625E-06	0.256256103515625
106	0.2587890625	232.494074413009	1.0113525390625E-05	0.258636474609375
107	0.26123046875	232.518474412947	1.02996826171875E-05	0.261077880859375
108	0.263671875	232.542874412886	1.04095458984375E-05	0.263519287109375
109	0.26611328125	232.567274412824	1.05438232421875E-05	0.265960693359375
110	0.2685546875	232.591674412762	1.06292724609375E-05	0.268402099609375
111	0.27099609375	232.616074412701	1.0577392578125E-05	0.270843505859375
112	0.2734375	232.640474412639	1.07391357421875E-05	0.27325439453125
113	0.27587890625	232.664874412578	1.09039306640625E-05	0.275726318359375
114	0.2783203125	232.689274412516	1.10137939453125E-05	0.278167724609375
115	0.28076171875	232.713674412454	1.1175537109375E-05	0.28057861328125
116	0.283203125	232.738074412393	1.13739013671875E-05	0.28302001953125
117	0.28564453125	232.762474412331	1.1468505859375E-05	0.28546142578125
118	0.2880859375	232.78687441227	1.1572265625E-05	0.287933349609375
119	0.29052734375	232.811274412208	1.1614990234375E-05	0.29034423828125
120	0.29296875	232.835674412146	1.1822509765625E-05	0.292816162109375
121	0.29541015625	232.860074412085	1.18408203125E-05	0.295257568359375
122	0.2978515625	232.884474412023	1.2078857421875E-05	0.297637939453125
123	0.30029296875	232.908874411962	1.220703125E-05	0.30010986328125
124	0.302734375	232.9332744119	1.23291015625E-05	0.30255126953125
125	0.30517578125	232.957674411838	1.24298095703125E-05	0.304931640625
126	0.3076171875	232.982074411777	1.2518310546875E-05	0.307464599609375
127	0.31005859375	233.006474411715	1.2774658203125E-05	0.309814453125
128	0.3125	233.030874411654	1.29547119140625E-05	0.31231689453125
129	0.31494140625	233.055274411592	1.30828857421875E-05	0.314727783203125
130	0.3173828125	233.07967441153	1.31561279296875E-05	0.317138671875
131	0.31982421875	233.104074411469	1.34613037109375E-05	0.319610595703125
132	0.322265625	233.128474411407	1.34429931640625E-05	0.322052001953125
133	0.32470703125	233.152874411346	1.36932373046875E-05	0.324462890625
134	0.3271484375	233.177274411284	1.37939453125E-05	0.326873779296875
135	0.32958984375	233.201674411222	1.38824462890625E-05	0.32940673828125
136	0.33203125	233.226074411161	1.409912109375E-05	0.331787109375
137	0.33447265625	233.250474411099	1.42822265625E-05	0.334259033203125
138	0.3369140625	233.274874411038	1.4361572265625E-05	0.336639404296875
139	0.33935546875	233.299274410976	1.4654541015625E-05	0.339111328125
140	0.341796875	233.323674410914	1.48468017578125E-05	0.341552734375
141	0.34423828125	233.348074410853	1.502685546875E-05	0.343963623046875
142	0.3466796875	233.372474410791	1.522216796875E-05	0.346405029296875
143	0.34912109375	233.39687441073	1.54510498046875E-05	0.348876953125
144	0.3515625	233.421274410668	1.55517578125E-05	0.351348876953125
145	0.35400390625	233.445674410606	1.56463623046875E-05	0.353851318359375
146	0.3564453125	233.470074410545	1.597900390625E-05	0.356231689453125
147	0.35888671875	233.494474410483	1.6082763671875E-05	0.358642578125
148	0.361328125	233.518874410422	1.6180419921875E-05	0.36102294921875
149	0.36376953125	233.54327441036	1.6339111328125E-05	0.363494873046875
150	0.3662109375	233.567674410298	1.6534423828125E-05	0.365966796875
151	0.36865234375	233.592074410237	1.6851806640625E-05	0.368316650390625
152	0.37109375	233.616474410175	1.6943359375E-05	0.370758056640625
153	0.37353515625	233.640874410113	1.71875E-05	0.37322998046875
154	0.3759765625	233.665274410052	1.7333984375E-05	0.375640869140625
155	0.37841796875	233.68967440999	1.7645263671875E-05	0.378143310546875
156	0.380859375	233.714074409929	1.77886962890625E-05	0.380523681640625
157	0.38330078125	233.738474409867	1.8048095703125E-05	0.382965087890625
158	0.3857421875	233.762874409805	1.83624267578125E-05	0.385406494140625
159	0.38818359375	233.787274409744	1.85211181640625E-05	0.387786865234375
160	0.390625	233.811674409682	1.8817138671875E-05	0.3902587890625
161	0.39306640625	233.836074409621	1.90521240234375E-05	0.392730712890625
162	0.3955078125	233.860474409559	1.92596435546875E-05	0.39520263671875
163	0.39794921875	233.884874409497	1.93450927734375E-05	0.397613525390625
164	0.400390625	233.909274409436	1.97906494140625E-05	0.4000244140625
165	0.40283203125	233.933674409374	1.99615478515625E-05	0.402435302734375
166	0.4052734375	233.958074409313	2.01202392578125E-05	0.40484619140625
167	0.40771484375	233.982474409251	2.05657958984375E-05	0.4073486328125
168	0.41015625	234.006874409189	2.100830078125E-05	0.4097900390625
169	0.41259765625	234.031274409128	2.1417236328125E-05	0.412200927734375
170	0.4150390625	234.055674409066	2.1527099609375E-05	0.41461181640625
171	0.41748046875	234.080074409005	2.17987060546875E-05	0.4169921875
172	0.419921875	234.104474408943	2.20184326171875E-05	0.41949462890625
173	0.42236328125	234.128874408881	2.2467041015625E-05	0.421905517578125
174	0.4248046875	234.15327440882	2.2967529296875E-05	0.42437744140625
175	0.42724609375	234.177674408758	2.3175048828125E-05	0.426788330078125
176	0.4296875	234.202074408697	2.35992431640625E-05	0.42919921875
177	0.43212890625	234.226474408635	2.3992919921875E-05	0.431640625
178	0.4345703125	234.250874408573	2.42767333984375E-05	0.43408203125
179	0.43701171875	234.275274408512	2.46917724609375E-05	0.436492919921875
180	0.439453125	234.29967440845	2.50823974609375E-05	0.438934326171875
181	0.44189453125	234.324074408389	2.54180908203125E-05	0.44134521484375
182	0.4443359375	234.348474408327	2.58544921875E-05	0.44378662109375
183	0.44677734375	234.372874408265	2.61749267578125E-05	0.446197509765625
184	0.44921875	234.397274408204	2.677001953125E-05	0.448638916015625
185	0.45166015625	234.421674408142	2.70477294921875E-05	0.45111083984375
186	0.4541015625	234.446074408081	2.744140625E-05	0.4534912109375
187	0.45654296875	234.470474408019	2.8033447265625E-05	0.4559326171875
188	0.458984375	234.494874407957	2.8594970703125E-05	0.4583740234375
189	0.46142578125	234.519274407896	2.88177490234375E-05	0.4608154296875
190	0.4638671875	234.543674407834	2.94036865234375E-05	0.463165283203125
191	0.46630859375	234.568074407773	2.98980712890625E-05	0.465606689453125
192	0.46875	234.592474407711	3.03497314453125E-05	0.468017578125
193	0.47119140625	234.616874407649	3.10760498046875E-05	0.471099853515625
194	0.4736328125	234.641274407588	3.1591796875E-05	0.473541259765625
195	0.47607421875	234.665674407526	3.22479248046875E-05	0.47601318359375
196	0.478515625	234.690074407465	3.29925537109375E-05	0.478424072265625
197	0.48095703125	234.714474407403	3.3544921875E-05	0.4808349609375
198	0.4833984375	234.738874407341	3.42529296875E-05	0.483306884765625
199	0.48583984375	234.76327440728	3.50433349609375E-05	0.485748291015625
200	0.48828125	234.787674407218	3.5760498046875E-05	0.4881591796875
201	0.49072265625	234.812074407157	3.66119384765625E-05	0.49053955078125
202	0.4931640625	234.836474407095	3.72802734375E-05	0.493072509765625
203	0.49560546875	234.860874407033	3.82293701171875E-05	0.495513916015625
204	0.498046875	234.885274406972	3.8726806640625E-05	0.4979248046875
205	0.50048828125	234.90967440691	3.97613525390625E-05	0.5003662109375
206	0.5029296875	234.934074406848	4.07562255859375E-05	0.5028076171875
207	0.50537109375	234.958474406787	4.195556640625E-05	0.505218505859375
208	0.5078125	234.982874406725	4.281005859375E-05	0.50762939453125
209	0.51025390625	235.007274406664	4.3914794921875E-05	0.510162353515625
210	0.5126953125	235.031674406602	4.47540283203125E-05	0.51263427734375
211	0.51513671875	235.05607440654	4.57672119140625E-05	0.51495361328125
212	0.517578125	235.080474406479	4.68902587890625E-05	0.517425537109375
213	0.52001953125	235.104874406417	4.82147216796875E-05	0.5198974609375
214	0.5224609375	235.129274406356	4.91546630859375E-05	0.52227783203125
215	0.52490234375	235.153674406294	5.0323486328125E-05	0.524749755859375
216	0.52734375	235.178074406232	5.1605224609375E-05	0.527191162109375
217	0.52978515625	235.202474406171	5.291748046875E-05	0.5296630859375
218	0.5322265625	235.226874406109	5.438232421875E-05	0.532073974609375
219	0.53466796875	235.251274406048	5.57861328125E-05	0.5345458984375
220	0.537109375	235.275674405986	5.7342529296875E-05	0.536956787109375
221	0.53955078125	235.300074405924	5.9356689453125E-05	0.539398193359375
222	0.5419921875	235.324474405863	6.0943603515625E-05	0.54180908203125
223	0.54443359375	235.348874405801	6.2744140625E-05	0.5443115234375
224	0.546875	235.37327440574	6.4697265625E-05	0.54669189453125
225	0.54931640625	235.397674405678	6.646728515625E-05	0.549102783203125
226	0.5517578125	235.422074405616	6.854248046875E-05	0.551605224609375
227	0.55419921875	235.446474405555	7.06787109375E-05	0.55401611328125
228	0.556640625	235.470874405493	7.275390625E-05	0.55645751953125
229	0.55908203125	235.495274405432	7.51953125E-05	0.558868408203125
230	0.5615234375	235.51967440537	7.7667236328125E-05	0.56134033203125
231	0.56396484375	235.544074405308	8.0169677734375E-05	0.563751220703125
232	0.56640625	235.568474405247	8.251953125E-05	0.566253662109375
233	0.56884765625	235.592874405185	8.53271484375E-05	0.56866455078125
234	0.5712890625	235.617274405124	8.819580078125E-05	0.57110595703125
235	0.57373046875	235.641674405062	9.124755859375E-05	0.573486328125
236	0.576171875	235.666074405	9.4268798828125E-05	0.576019287109375
237	0.57861328125	235.690474404939	9.7564697265625E-05	0.578338623046875
238	0.5810546875	235.714874404877	0.000101043701171875	0.580841064453125
239	0.58349609375	235.739274404816	0.0001044921875	0.583221435546875
240	0.5859375	235.763674404754	0.000108184814453125	0.585601806640625
241	0.58837890625	235.788074404692	0.000111968994140625	0.588104248046875
242	0.5908203125	235.812474404631	0.00011578369140625	0.590484619140625
243	0.59326171875	235.836874404569	0.000119903564453125	0.592987060546875
244	0.595703125	235.861274404508	0.00012420654296875	0.595367431640625
245	0.59814453125	235.885674404446	0.000128936767578125	0.59783935546875
246	0.6005859375	235.910074404384	0.00013372802734375	0.600341796875
247	0.60302734375	235.934474404323	0.00013848876953125	0.6026611328125
248	0.60546875	235.958874404261	0.000143707275390625	0.605194091796875
249	0.60791015625	235.9832744042	0.0001490478515625	0.607574462890625
250	0.6103515625	236.007674404138	0.000155029296875	0.610015869140625
251	0.61279296875	236.032074404076	0.000160491943359375	0.6124267578125
252	0.615234375	236.056474404015	0.000166748046875	0.61480712890625
253	0.61767578125	236.080874403953	0.000173248291015625	0.617218017578125
254	0.6201171875	236.105274403891	0.000179718017578125	0.619720458984375
255	0.62255859375	236.12967440383	0.00018621826171875	0.622100830078125
256	0.625	236.154074403768	0.000193328857421875	0.624542236328125
257	0.62744140625	236.178474403707	0.000200775146484375	0.626953125
258	0.6298828125	236.202874403645	0.000208984375	0.629364013671875
259	0.63232421875	236.227274403583	0.00021722412109375	0.63177490234375
260	0.634765625	236.251674403522	0.000225616455078125	0.634246826171875
261	0.63720703125	236.27607440346	0.000234283447265625	0.636566162109375
262	0.6396484375	236.300474403399	0.000243499755859375	0.639007568359375
263	0.64208984375	236.324874403337	0.0002532958984375	0.64141845703125
264	0.64453125	236.349274403275	0.00026318359375	0.64385986328125
265	0.64697265625	236.373674403214	0.0002735595703125	0.646240234375
266	0.6494140625	236.398074403152	0.00028424072265625	0.64862060546875
267	0.65185546875	236.422474403091	0.00029595947265625	0.65106201171875
268	0.654296875	236.446874403029	0.000307464599609375	0.653472900390625
269	0.65673828125	236.471274402967	0.000319580078125	0.6566162109375
270	0.6591796875	236.495674402906	0.00033245849609375	0.659027099609375
271	0.66162109375	236.520074402844	0.000345428466796875	0.661407470703125
272	0.6640625	236.544474402783	0.000359130859375	0.663909912109375
273	0.66650390625	236.568874402721	0.00037335205078125	0.666290283203125
274	0.6689453125	236.593274402659	0.00038818359375	0.668731689453125
275	0.67138671875	236.617674402598	0.000403411865234375	0.67120361328125
276	0.673828125	236.642074402536	0.000419464111328125	0.673614501953125
277	0.67626953125	236.666474402475	0.000436065673828125	0.67608642578125
278	0.6787109375	236.690874402413	0.0004530029296875	0.67852783203125
279	0.68115234375	236.715274402351	0.00047039794921875	0.68096923828125
280	0.68359375	236.73967440229	0.0004886474609375	0.683349609375
281	0.68603515625	236.764074402228	0.00050872802734375	0.685821533203125
282	0.6884765625	236.788474402167	0.00052825927734375	0.688262939453125
283	0.69091796875	236.812874402105	0.000548095703125	0.690673828125
284	0.693359375	236.837274402043	0.00056915283203125	0.69317626953125
285	0.69580078125	236.861674401982	0.00059112548828125	0.695556640625
286	0.6982421875	236.88607440192	0.00061309814453125	0.697967529296875
287	0.70068359375	236.910474401859	0.0006365966796875	0.700439453125
288	0.703125	236.934874401797	0.00066070556640625	0.70281982421875
289	0.70556640625	236.959274401735	0.00068511962890625	0.705291748046875
290	0.7080078125	236.983674401674	0.00071075439453125	0.707733154296875
291	0.71044921875	237.008074401612	0.0007366943359375	0.71014404296875
292	0.712890625	237.032474401551	0.0007635498046875	0.71258544921875
293	0.71533203125	237.056874401489	0.0007916259765625	0.714996337890625
294	0.7177734375	237.081274401427	0.0008203125	0.71746826171875
295	0.72021484375	237.105674401366	0.00084991455078125	0.719940185546875
296	0.72265625	237.130074401304	0.00088043212890625	0.722320556640625
297	0.72509765625	237.154474401243	0.000911865234375	0.724700927734375
298	0.7275390625	237.178874401181	0.0009442138671875	0.7271728515625
299	0.72998046875	237.203274401119	0.00097747802734375	0.729644775390625
300	0.732421875	237.227674401058	0.0010113525390625	0.732086181640625
301	0.73486328125	237.252074400996	0.00104583740234375	0.734466552734375
302	0.7373046875	237.276474400934	0.00108123779296875	0.736907958984375
303	0.73974609375	237.300874400873	0.0011181640625	0.739349365234375
304	0.7421875	237.325274400811	0.00115570068359375	0.7418212890625
305	0.74462890625	237.34967440075	0.0011944580078125	0.74420166015625
306	0.7470703125	237.374074400688	0.0012335205078125	0.74664306640625
307	0.74951171875	237.398474400626	0.00127410888671875	0.74908447265625
308	0.751953125	237.422874400565	0.00131500244140625	0.75103759765625
309	0.75439453125	237.447274400503	0.00135711669921875	0.7537841796875
310	0.7568359375	237.471674400442	0.001400146484375	0.75653076171875
311	0.75927734375	237.49607440038	0.00144378662109375	0.75836181640625
312	0.76171875	237.520474400318	0.0014886474609375	0.7611083984375
313	0.76416015625	237.544874400257	0.00153472900390625	0.76385498046875
314	0.7666015625	237.569274400195	0.00158172607421875	0.7659912109375
315	0.76904296875	237.593674400134	0.0016290283203125	0.7684326171875
316	0.771484375	237.618074400072	0.00167755126953125	0.7708740234375
317	0.77392578125	237.64247440001	0.001727294921875	0.7733154296875
318	0.7763671875	237.666874399949	0.00177764892578125	0.7757568359375
319	0.77880859375	237.691274399887	0.0018292236328125	0.77850341796875
320	0.78125	237.715674399826	0.00188079833984375	0.7806396484375
321	0.78369140625	237.740074399764	0.00193389892578125	0.782470703125
322	0.7861328125	237.764474399702	0.00198822021484375	0.78521728515625
323	0.78857421875	237.788874399641	0.00204315185546875	0.7879638671875
324	0.791015625	237.813274399579	0.002098388671875	0.79071044921875
325	0.79345703125	237.837674399518	0.00215484619140625	0.79315185546875
326	0.7958984375	237.862074399456	0.00221282958984375	0.79498291015625
327	0.79833984375	237.886474399394	0.00227142333984375	0.79742431640625
328	0.80078125	237.910874399333	0.00233062744140625	0.79986572265625
329	0.80322265625	237.935274399271	0.0023907470703125	0.8026123046875
330	0.8056640625	237.95967439921	0.0024517822265625	0.80474853515625
331	0.80810546875	237.984074399148	0.00251373291015625	0.80718994140625
332	0.810546875	238.008474399086	0.0025762939453125	0.80963134765625
333	0.81298828125	238.032874399025	0.00263885498046875	0.81207275390625
334	0.8154296875	238.057274398963	0.00270294189453125	0.8148193359375
335	0.81787109375	238.081674398902	0.00276824951171875	0.81695556640625
336	0.8203125	238.10607439884	0.00283416748046875	0.819091796875
337	0.82275390625	238.130474398778	0.00290069580078125	0.82183837890625
338	0.8251953125	238.154874398717	0.002967529296875	0.8245849609375
339	0.82763671875	238.179274398655	0.0030352783203125	0.8270263671875
340	0.830078125	238.203674398594	0.00310394287109375	0.82977294921875
341	0.83251953125	238.228074398532	0.00317291259765625	0.83251953125
342	0.8349609375	238.25247439847	0.0032421875	0.83404541015625
343	0.83740234375	238.276874398409	0.00331207275390625	0.83648681640625
344	0.83984375	238.301274398347	0.00338287353515625	0.838623046875
345	0.84228515625	238.325674398286	0.003453369140625	0.8416748046875
346	0.8447265625	238.350074398224	0.00352447509765625	0.84381103515625
347	0.84716796875	238.374474398162	0.00359527587890625	0.84625244140625
348	0.849609375	238.398874398101	0.003665771484375	0.8489990234375
349	0.85205078125	238.423274398039	0.003736572265625	0.85113525390625
350	0.8544921875	238.447674397977	0.00380645751953125	0.8538818359375
351	0.85693359375	238.472074397916	0.0038751220703125	0.85601806640625
352	0.859375	238.496474397854	0.00394287109375	0.85845947265625
353	0.86181640625	238.520874397793	0.00400970458984375	0.860595703125
354	0.8642578125	238.545274397731	0.00407470703125	0.8636474609375
355	0.86669921875	238.569674397669	0.0041375732421875	0.8660888671875
356	0.869140625	238.594074397608	0.004197998046875	0.86822509765625
357	0.87158203125	238.618474397546	0.00425628662109375	0.8709716796875
358	0.8740234375	238.642874397485	0.004312744140625	0.87249755859375
359	0.87646484375	238.667274397423	0.00436676025390625	0.8758544921875
360	0.87890625	238.691674397361	0.004417724609375	0.8782958984375
361	0.88134765625	238.7160743973	0.00446624755859375	0.8807373046875
362	0.8837890625	238.740474397238	0.0045135498046875	0.882568359375
363	0.88623046875	238.764874397177	0.00455810546875	0.885009765625
364	0.888671875	238.789274397115	0.0046002197265625	0.88775634765625
365	0.89111328125	238.813674397053	0.00464080810546875	0.889892578125
366	0.8935546875	238.838074396992	0.0046795654296875	0.8929443359375
367	0.89599609375	238.86247439693	0.00471710205078125	0.894775390625
368	0.8984375	238.886874396869	0.0047528076171875	0.8978271484375
369	0.90087890625	238.911274396807	0.0047869873046875	0.899658203125
370	0.9033203125	238.935674396745	0.0048199462890625	0.90240478515625
371	0.90576171875	238.960074396684	0.00485137939453125	0.9051513671875
372	0.908203125	238.984474396622	0.00488189697265625	0.906982421875
373	0.91064453125	239.008874396561	0.0049114990234375	0.90972900390625
374	0.9130859375	239.033274396499	0.0049395751953125	0.9124755859375
375	0.91552734375	239.057674396437	0.004967041015625	0.914306640625
376	0.91796875	239.082074396376	0.00499359130859375	0.91705322265625
377	0.92041015625	239.106474396314	0.00501922607421875	0.91949462890625
378	0.9228515625	239.130874396253	0.00504425048828125	0.92193603515625
379	0.92529296875	239.155274396191	0.005068359375	0.92437744140625
380	0.927734375	239.179674396129	0.005091552734375	0.92681884765625
381	0.93017578125	239.204074396068	0.00511474609375	0.92987060546875
382	0.9326171875	239.228474396006	0.00513702392578125	0.9320068359375
383	0.93505859375	239.252874395945	0.00515838623046875	0.93414306640625
384	0.9375	239.277274395883	0.00517974853515625	0.93658447265625
385	0.93994140625	239.301674395821	0.00520050048828125	0.93902587890625
386	0.9423828125	239.32607439576	0.00522064208984375	0.94146728515625
387	0.94482421875	239.350474395698	0.00524017333984375	0.94390869140625
388	0.947265625	239.374874395637	0.00525909423828125	0.946044921875
389	0.94970703125	239.399274395575	0.00527801513671875	0.94879150390625
390	0.9521484375	239.423674395513	0.005296630859375	0.9515380859375
391	0.95458984375	239.448074395452	0.00531463623046875	0.95367431640625
392	0.95703125	239.47247439539	0.00533203125	0.9564208984375
393	0.95947265625	239.496874395329	0.00534912109375	0.95855712890625
394	0.9619140625	239.521274395267	0.0053662109375	0.96099853515625
395	0.96435546875	239.545674395205	0.00538299560546875	0.963134765625
396	0.966796875	239.570074395144	0.005399169921875	0.9661865234375
397	0.96923828125	239.594474395082	0.0054150390625	0.96893310546875
398	0.9716796875	239.61887439502	0.00543060302734375	0.97076416015625
399	0.97412109375	239.643274394959	0.0054461669921875	0.9735107421875
400	0.9765625	239.667674394897	0.00546142578125	0.97564697265625
401	0.97900390625	239.692074394836	0.00547637939453125	0.977783203125
402	0.9814453125	239.716474394774	0.00549102783203125	0.9808349609375
403	0.98388671875	239.740874394712	0.00550537109375	0.98358154296875
404	0.986328125	239.765274394651	0.00551971435546875	0.98541259765625
405	0.98876953125	239.789674394589	0.005533447265625	0.9881591796875
406	0.9912109375	239.814074394528	0.00554718017578125	0.9906005859375
407	0.99365234375	239.838474394466	0.00556060791015625	0.9930419921875
408	0.99609375	239.862874394404	0.0055743408203125	0.99517822265625
409	0.99853515625	239.887274394343	0.00558746337890625	0.99700927734375
410	1.0009765625	239.911674394281	0.0056005859375	1.00006103515625
411	1.00341796875	239.93607439422	0.00561309814453125	1.002197265625
412	1.005859375	239.960474394158	0.0056256103515625	1.0052490234375
413	1.00830078125	239.984874394096	0.00563812255859375	1.007080078125
414	1.0107421875	240.009274394035	0.00565032958984375	1.0101318359375
415	1.01318359375	240.033674393973	0.00566253662109375	1.01226806640625
416	1.015625	240.058074393912	0.0056744384765625	1.014404296875
417	1.01806640625	240.08247439385	0.00568634033203125	1.01715087890625
418	1.0205078125	240.106874393788	0.0056982421875	1.0198974609375
419	1.02294921875	240.131274393727	0.0057098388671875	1.02203369140625
420	1.025390625	240.155674393665	0.0057208251953125	1.02447509765625
421	1.02783203125	240.180074393604	0.00573211669921875	1.026611328125
422	1.0302734375	240.204474393542	0.005743408203125	1.029052734375
423	1.03271484375	240.22887439348	0.00575469970703125	1.03179931640625
424	1.03515625	240.253274393419	0.005765380859375	1.033935546875
425	1.03759765625	240.277674393357	0.00577606201171875	1.0369873046875
426	1.0400390625	240.302074393296	0.0057867431640625	1.03851318359375
427	1.04248046875	240.326474393234	0.005797119140625	1.04156494140625
428	1.044921875	240.350874393172	0.0058074951171875	1.04461669921875
429	1.04736328125	240.375274393111	0.00581787109375	1.04644775390625
430	1.0498046875	240.399674393049	0.00582794189453125	1.048583984375
431	1.05224609375	240.424074392988	0.0058380126953125	1.0516357421875
432	1.0546875	240.448474392926	0.00584808349609375	1.053466796875
433	1.05712890625	240.472874392864	0.00585784912109375	1.0565185546875
434	1.0595703125	240.497274392803	0.00586761474609375	1.058349609375
435	1.06201171875	240.521674392741	0.00587738037109375	1.06048583984375
436	1.064453125	240.54607439268	0.0058868408203125	1.06353759765625
437	1.06689453125	240.570474392618	0.00589630126953125	1.0662841796875
438	1.0693359375	240.594874392556	0.00590576171875	1.068115234375
439	1.07177734375	240.619274392495	0.00591522216796875	1.0711669921875
440	1.07421875	240.643674392433	0.00592437744140625	1.07330322265625
441	1.07666015625	240.668074392372	0.00593353271484375	1.07574462890625
442	1.0791015625	240.69247439231	0.00594268798828125	1.077880859375
443	1.08154296875	240.716874392248	0.0059515380859375	1.0809326171875
444	1.083984375	240.741274392187	0.00596038818359375	1.08306884765625
445	1.08642578125	240.765674392125	0.00596923828125	1.0858154296875
446	1.0888671875	240.790074392064	0.00597808837890625	1.08795166015625
447	1.09130859375	240.814474392002	0.00598663330078125	1.09039306640625
448	1.09375	240.83887439194	0.00599517822265625	1.0931396484375
449	1.09619140625	240.863274391879	0.00600372314453125	1.09527587890625
450	1.0986328125	240.887674391817	0.00601226806640625	1.097412109375
451	1.10107421875	240.912074391755	0.0060205078125	1.099853515625
452	1.103515625	240.936474391694	0.006029052734375	1.102294921875
453	1.10595703125	240.960874391632	0.0060369873046875	1.104736328125
454	1.1083984375	240.985274391571	0.0060455322265625	1.107177734375
455	1.11083984375	241.009674391509	0.006053466796875	1.11053466796875
456	1.11328125	241.034074391447	0.0060614013671875	1.112060546875
457	1.11572265625	241.058474391386	0.0060693359375	1.1151123046875
458	1.1181640625	241.082874391324	0.00607757568359375	1.116943359375
459	1.12060546875	241.107274391263	0.006085205078125	1.119384765625
460	1.123046875	241.131674391201	0.0060931396484375	1.121826171875
461	1.12548828125	241.156074391139	0.00610076904296875	1.124267578125
462	1.1279296875	241.180474391078	0.0061083984375	1.126708984375
463	1.13037109375	241.204874391016	0.00611602783203125	1.12945556640625
464	1.1328125	241.229274390955	0.0061236572265625	1.131591796875
465	1.13525390625	241.253674390893	0.0061309814453125	1.134033203125
466	1.1376953125	241.278074390831	0.00613861083984375	1.136474609375
467	1.14013671875	241.30247439077	0.00614593505859375	1.1395263671875
468	1.142578125	241.326874390708	0.00615325927734375	1.1419677734375
469	1.14501953125	241.351274390647	0.00616058349609375	1.14410400390625
470	1.1474609375	241.375674390585	0.00616790771484375	1.1468505859375
471	1.14990234375	241.400074390523	0.00617523193359375	1.148681640625
472	1.15234375	241.424474390462	0.0061822509765625	1.151123046875
473	1.15478515625	241.4488743904	0.0061895751953125	1.153564453125
474	1.1572265625	241.473274390339	0.00619659423828125	1.15631103515625
475	1.15966796875	241.497674390277	0.00620361328125	1.15875244140625
476	1.162109375	241.522074390215	0.00621063232421875	1.160888671875
477	1.16455078125	241.546474390154	0.0062176513671875	1.163330078125
478	1.1669921875	241.570874390092	0.006224365234375	1.16607666015625
479	1.16943359375	241.595274390031	0.00623138427734375	1.16790771484375
480	1.171875	241.619674389969	0.00623809814453125	1.170654296875
481	1.17431640625	241.644074389907	0.00624481201171875	1.17340087890625
482	1.1767578125	241.668474389846	0.0062518310546875	1.17584228515625
483	1.17919921875	241.692874389784	0.00625823974609375	1.17828369140625
484	1.181640625	241.717274389723	0.00626495361328125	1.180419921875
485	1.18408203125	241.741674389661	0.00627166748046875	1.18255615234375
486	1.1865234375	241.766074389599	0.006278076171875	1.18560791015625
487	1.18896484375	241.790474389538	0.0062847900390625	1.18743896484375
488	1.19140625	241.814874389476	0.00629119873046875	1.190185546875
489	1.19384765625	241.839274389415	0.006297607421875	1.19293212890625
490	1.1962890625	241.863674389353	0.00630401611328125	1.19537353515625
491	1.19873046875	241.888074389291	0.0063104248046875	1.197509765625
492	1.201171875	241.91247438923	0.00631683349609375	1.199951171875
493	1.19873046875	241.936874389168	0.00630523681640625	1.197509765625
494	1.1962890625	241.961274389107	0.00629364013671875	1.19476318359375
495	1.19384765625	241.985674389045	0.00628204345703125	1.19293212890625
496	1.19140625	242.010074388983	0.00627044677734375	1.19049072265625
497	1.18896484375	242.034474388922	0.006258544921875	1.1883544921875
498	1.1865234375	242.05887438886	0.00624664306640625	1.18499755859375
499	1.18408203125	242.083274388798	0.0062347412109375	1.182861328125
500	1.181640625	242.107674388737	0.0062225341796875	1.1810302734375
501	1.17919921875	242.132074388675	0.0062103271484375	1.177978515625
502	1.1767578125	242.156474388614	0.0061981201171875	1.1749267578125
503	1.17431640625	242.180874388552	0.00618560791015625	1.173095703125
504	1.171875	242.20527438849	0.006173095703125	1.170654296875
505	1.16943359375	242.229674388429	0.0061602783203125	1.16851806640625
506	1.1669921875	242.254074388367	0.0061474609375	1.165771484375
507	1.16455078125	242.278474388306	0.0061346435546875	1.16302490234375
508	1.162109375	242.302874388244	0.00612152099609375	1.16119384765625
509	1.15966796875	242.327274388182	0.0061083984375	1.15875244140625
510	1.1572265625	242.351674388121	0.006094970703125	1.156005859375
511	1.15478515625	242.376074388059	0.00608154296875	1.15386962890625
512	1.15234375	242.400474387998	0.00606781005859375	1.1517333984375
513	1.14990234375	242.424874387936	0.0060540771484375	1.14898681640625
514	1.1474609375	242.449274387874	0.00604034423828125	1.146240234375
515	1.14501953125	242.473674387813	0.00602630615234375	1.143798828125
516	1.142578125	242.498074387751	0.006011962890625	1.14166259765625
517	1.14013671875	242.52247438769	0.00599761962890625	1.138916015625
518	1.1376953125	242.546874387628	0.00598297119140625	1.13677978515625
519	1.13525390625	242.571274387566	0.005968017578125	1.13433837890625
520	1.1328125	242.595674387505	0.00595306396484375	1.13189697265625
521	1.13037109375	242.620074387443	0.00593780517578125	1.13006591796875
522	1.1279296875	242.644474387382	0.00592254638671875	1.126708984375
523	1.12548828125	242.66887438732	0.005906982421875	1.12396240234375
524	1.123046875	242.693274387258	0.00589111328125	1.121826171875
525	1.12060546875	242.717674387197	0.005875244140625	1.119384765625
526	1.1181640625	242.742074387135	0.0058587646484375	1.11663818359375
527	1.11572265625	242.766474387074	0.00584259033203125	1.11480712890625
528	1.11328125	242.790874387012	0.0058258056640625	1.112060546875
529	1.11083984375	242.81527438695	0.0058087158203125	1.10931396484375
530	1.1083984375	242.839674386889	0.0057916259765625	1.1077880859375
531	1.10595703125	242.864074386827	0.00577423095703125	1.1053466796875
532	1.103515625	242.888474386766	0.00575653076171875	1.1029052734375
533	1.10107421875	242.912874386704	0.005738525390625	1.10015869140625
534	1.0986328125	242.937274386642	0.00572021484375	1.097412109375
535	1.09619140625	242.961674386581	0.00570159912109375	1.094970703125
536	1.09375	242.986074386519	0.005682373046875	1.09283447265625
537	1.09130859375	243.010474386458	0.00566314697265625	1.09039306640625
538	1.0888671875	243.034874386396	0.00564361572265625	1.0882568359375
539	1.08642578125	243.059274386334	0.00562347412109375	1.08551025390625
540	1.083984375	243.083674386273	0.00560333251953125	1.0833740234375
541	1.08154296875	243.108074386211	0.00558258056640625	1.0809326171875
542	1.0791015625	243.13247438615	0.00556121826171875	1.077880859375
543	1.07666015625	243.156874386088	0.00553955078125	1.075439453125
544	1.07421875	243.181274386026	0.00551727294921875	1.072998046875
545	1.07177734375	243.205674385965	0.00549468994140625	1.07086181640625
546	1.0693359375	243.230074385903	0.0054718017578125	1.0687255859375
547	1.06689453125	243.254474385841	0.005447998046875	1.065673828125
548	1.064453125	243.27887438578	0.005423583984375	1.063232421875
549	1.06201171875	243.303274385718	0.00539886474609375	1.06109619140625
550	1.0595703125	243.327674385657	0.00537353515625	1.05865478515625
551	1.05712890625	243.352074385595	0.0053472900390625	1.0565185546875
552	1.0546875	243.376474385533	0.00532012939453125	1.05377197265625
553	1.05224609375	243.400874385472	0.0052923583984375	1.051025390625
554	1.0498046875	243.42527438541	0.00526397705078125	1.04827880859375
555	1.04736328125	243.449674385349	0.005234375	1.046142578125
556	1.044921875	243.474074385287	0.005203857421875	1.04400634765625
557	1.04248046875	243.498474385225	0.0051727294921875	1.04156494140625
558	1.0400390625	243.522874385164	0.00514007568359375	1.03912353515625
559	1.03759765625	243.547274385102	0.00510650634765625	1.03668212890625
560	1.03515625	243.571674385041	0.0050714111328125	1.033935546875
561	1.03271484375	243.596074384979	0.0050347900390625	1.03240966796875
562	1.0302734375	243.620474384917	0.0049969482421875	1.02935791015625
563	1.02783203125	243.644874384856	0.004957275390625	1.02691650390625
564	1.025390625	243.669274384794	0.004915771484375	1.02447509765625
565	1.02294921875	243.693674384733	0.0048724365234375	1.0223388671875
566	1.0205078125	243.718074384671	0.00482635498046875	1.01959228515625
567	1.01806640625	243.742474384609	0.00477813720703125	1.016845703125
568	1.015625	243.766874384548	0.0047271728515625	1.01531982421875
569	1.01318359375	243.791274384486	0.00467315673828125	1.01226806640625
570	1.0107421875	243.815674384425	0.004615478515625	1.009521484375
571	1.00830078125	243.840074384363	0.004554443359375	1.00738525390625
572	1.005859375	243.864474384301	0.00448974609375	1.0052490234375
573	1.00341796875	243.88887438424	0.00442108154296875	1.00311279296875
574	1.0009765625	243.913274384178	0.0043475341796875	0.999755859375
575	0.99853515625	243.937674384117	0.00426910400390625	0.99761962890625
576	0.99609375	243.962074384055	0.0041864013671875	0.99517822265625
577	0.99365234375	243.986474383993	0.004100341796875	0.9930419921875
578	0.9912109375	244.010874383932	0.0040106201171875	0.99029541015625
579	0.98876953125	244.03527438387	0.003917236328125	0.987548828125
580	0.986328125	244.059674383809	0.003822021484375	0.985107421875
581	0.98388671875	244.084074383747	0.0037261962890625	0.98297119140625
582	0.9814453125	244.108474383685	0.0036297607421875	0.9808349609375
583	0.97900390625	244.132874383624	0.00353302001953125	0.9783935546875
584	0.9765625	244.157274383562	0.00343658447265625	0.97564697265625
585	0.97412109375	244.181674383501	0.003341064453125	0.97381591796875
586	0.9716796875	244.206074383439	0.00324737548828125	0.97076416015625
587	0.96923828125	244.230474383377	0.0031549072265625	0.96832275390625
588	0.966796875	244.254874383316	0.00306396484375	0.965576171875
589	0.96435546875	244.279274383254	0.002974853515625	0.96405029296875
590	0.9619140625	244.303674383193	0.002886962890625	0.96099853515625
591	0.95947265625	244.328074383131	0.002801513671875	0.95855712890625
592	0.95703125	244.352474383069	0.00271728515625	0.9564208984375
593	0.95458984375	244.376874383008	0.0026348876953125	0.9539794921875
594	0.9521484375	244.401274382946	0.00255462646484375	0.95123291015625
595	0.94970703125	244.425674382884	0.00247589111328125	0.948486328125
596	0.947265625	244.450074382823	0.00239959716796875	0.9466552734375
597	0.94482421875	244.474474382761	0.00232513427734375	0.94329833984375
598	0.9423828125	244.4988743827	0.00225189208984375	0.94146728515625
599	0.93994140625	244.523274382638	0.0021807861328125	0.93902587890625
600	0.9375	244.547674382576	0.00211181640625	0.93719482421875
601	0.93505859375	244.572074382515	0.0020440673828125	0.93414306640625
602	0.9326171875	244.596474382453	0.00197845458984375	0.93170166015625
603	0.93017578125	244.620874382392	0.0019146728515625	0.92926025390625
604	0.927734375	244.64527438233	0.00185302734375	0.92681884765625
605	0.92529296875	244.669674382268	0.00179351806640625	0.924072265625
606	0.9228515625	244.694074382207	0.0017352294921875	0.92193603515625
607	0.92041015625	244.718474382145	0.00167816162109375	0.91949462890625
608	0.91796875	244.742874382084	0.00162353515625	0.9173583984375
609	0.91552734375	244.767274382022	0.00157073974609375	0.91461181640625
610	0.9130859375	244.79167438196	0.00151947021484375	0.911865234375
611	0.91064453125	244.816074381899	0.0014697265625	0.9100341796875
612	0.908203125	244.840474381837	0.00142120361328125	0.9075927734375
613	0.90576171875	244.864874381776	0.00137542724609375	0.90484619140625
614	0.9033203125	244.889274381714	0.00133087158203125	0.9027099609375
615	0.90087890625	244.913674381652	0.0012872314453125	0.899658203125
616	0.8984375	244.938074381591	0.0012451171875	0.8978271484375
617	0.89599609375	244.962474381529	0.001204833984375	0.8953857421875
618	0.8935546875	244.986874381468	0.00116607666015625	0.8917236328125
619	0.89111328125	245.011274381406	0.0011285400390625	0.889892578125
620	0.888671875	245.035674381344	0.001092529296875	0.887451171875
621	0.88623046875	245.060074381283	0.0010577392578125	0.8856201171875
622	0.8837890625	245.084474381221	0.001024169921875	0.88287353515625
623	0.88134765625	245.10887438116	0.000992431640625	0.8807373046875
624	0.87890625	245.133274381098	0.0009613037109375	0.87799072265625
625	0.87646484375	245.157674381036	0.00093109130859375	0.87554931640625
626	0.8740234375	245.182074380975	0.0009027099609375	0.87310791015625
627	0.87158203125	245.206474380913	0.00087493896484375	0.870361328125
628	0.869140625	245.230874380852	0.00084869384765625	0.867919921875
629	0.86669921875	245.25527438079	0.0008233642578125	0.86578369140625
630	0.8642578125	245.279674380728	0.00079864501953125	0.86334228515625
631	0.86181640625	245.304074380667	0.000775146484375	0.8612060546875
632	0.859375	245.328474380605	0.0007525634765625	0.8587646484375
633	0.85693359375	245.352874380544	0.0007305908203125	0.85601806640625
634	0.8544921875	245.377274380482	0.00071014404296875	0.853271484375
635	0.85205078125	245.40167438042	0.0006903076171875	0.8514404296875
636	0.849609375	245.426074380359	0.00067108154296875	0.8489990234375
637	0.84716796875	245.450474380297	0.00065277099609375	0.8465576171875
638	0.8447265625	245.474874380236	0.0006341552734375	0.8441162109375
639	0.84228515625	245.499274380174	0.00061737060546875	0.84136962890625
640	0.83984375	245.523674380112	0.0006005859375	0.83892822265625
641	0.83740234375	245.548074380051	0.000584716796875	0.83648681640625
642	0.8349609375	245.572474379989	0.00056915283203125	0.8343505859375
643	0.83251953125	245.596874379927	0.00055450439453125	0.8319091796875
644	0.830078125	245.621274379866	0.00054046630859375	0.82977294921875
645	0.82763671875	245.645674379804	0.00052703857421875	0.82733154296875
646	0.8251953125	245.670074379743	0.000513916015625	0.8245849609375
647	0.82275390625	245.694474379681	0.0005010986328125	0.8221435546875
648	0.8203125	245.718874379619	0.000488067626953125	0.8197021484375
649	0.81787109375	245.743274379558	0.00047564697265625	0.8172607421875
650	0.8154296875	245.767674379496	0.000464324951171875	0.81451416015625
651	0.81298828125	245.792074379435	0.000453338623046875	0.81207275390625
652	0.810546875	245.816474379373	0.000442657470703125	0.8099365234375
653	0.80810546875	245.840874379311	0.0004324951171875	0.806884765625
654	0.8056640625	245.86527437925	0.000422393798828125	0.8050537109375
655	0.80322265625	245.889674379188	0.00041265869140625	0.80230712890625
656	0.80078125	245.914074379127	0.000403594970703125	0.79986572265625
657	0.79833984375	245.938474379065	0.00039453125	0.79742431640625
658	0.7958984375	245.962874379003	0.000385772705078125	0.794677734375
659	0.79345703125	245.987274378942	0.000377105712890625	0.79254150390625
660	0.791015625	246.01167437888	0.00036865234375	0.789794921875
661	0.78857421875	246.036074378819	0.0003607177734375	0.78765869140625
662	0.7861328125	246.060474378757	0.00035308837890625	0.78521728515625
663	0.78369140625	246.084874378695	0.000345184326171875	0.78277587890625
664	0.78125	246.109274378634	0.000338043212890625	0.78033447265625
665	0.77880859375	246.133674378572	0.000330322265625	0.77850341796875
666	0.7763671875	246.158074378511	0.000323486328125	0.775146484375
667	0.77392578125	246.182474378449	0.0003165283203125	0.77301025390625
668	0.771484375	246.206874378387	0.0003099365234375	0.770263671875
669	0.76904296875	246.231274378326	0.000303375244140625	0.76812744140625
670	0.7666015625	246.255674378264	0.000297119140625	0.76629638671875
671	0.76416015625	246.280074378203	0.000290863037109375	0.76324462890625
672	0.76171875	246.304474378141	0.0002847900390625	0.76080322265625
673	0.75927734375	246.328874378079	0.000279022216796875	0.75836181640625
674	0.7568359375	246.353274378018	0.000273284912109375	0.75592041015625
675	0.75439453125	246.377674377956	0.000267547607421875	0.75408935546875
676	0.751953125	246.402074377895	0.0002618408203125	0.7513427734375
677	0.74951171875	246.426474377833	0.000256683349609375	0.74932861328125
678	0.7470703125	246.450874377771	0.000251373291015625	0.746795654296875
679	0.74462890625	246.47527437771	0.00024615478515625	0.744415283203125
680	0.7421875	246.499674377648	0.000241241455078125	0.741943359375
681	0.73974609375	246.524074377587	0.000236114501953125	0.73944091796875
682	0.7373046875	246.548474377525	0.00023126220703125	0.737030029296875
683	0.73486328125	246.572874377463	0.000226593017578125	0.734649658203125
684	0.732421875	246.597274377402	0.0002220458984375	0.73223876953125
685	0.72998046875	246.62167437734	0.000217559814453125	0.72979736328125
686	0.7275390625	246.646074377279	0.00021331787109375	0.727325439453125
687	0.72509765625	246.670474377217	0.00020892333984375	0.72491455078125
688	0.72265625	246.694874377155	0.000204437255859375	0.722442626953125
689	0.72021484375	246.719274377094	0.00020037841796875	0.720062255859375
690	0.7177734375	246.743674377032	0.0001964111328125	0.717559814453125
691	0.71533203125	246.768074376971	0.0001923828125	0.71514892578125
692	0.712890625	246.792474376909	0.00018841552734375	0.712677001953125
693	0.71044921875	246.816874376847	0.000184722900390625	0.71026611328125
694	0.7080078125	246.841274376786	0.000180816650390625	0.707733154296875
695	0.70556640625	246.865674376724	0.00017718505859375	0.705413818359375
696	0.703125	246.890074376662	0.000173583984375	0.70294189453125
697	0.70068359375	246.914474376601	0.000169952392578125	0.70050048828125
698	0.6982421875	246.938874376539	0.0001666259765625	0.69805908203125
699	0.69580078125	246.963274376478	0.000163238525390625	0.69561767578125
700	0.693359375	246.987674376416	0.00015985107421875	0.69317626953125
701	0.69091796875	247.012074376354	0.000156524658203125	0.690765380859375
702	0.6884765625	247.036474376293	0.000153411865234375	0.688323974609375
703	0.68603515625	247.060874376231	0.00015032958984375	0.68585205078125
704	0.68359375	247.08527437617	0.000147308349609375	0.6834716796875
705	0.68115234375	247.109674376108	0.0001441650390625	0.680999755859375
706	0.6787109375	247.134074376046	0.000141326904296875	0.678558349609375
707	0.67626953125	247.158474375985	0.00013848876953125	0.676116943359375
708	0.673828125	247.182874375923	0.0001353759765625	0.673736572265625
709	0.67138671875	247.207274375862	0.0001326904296875	0.67120361328125
710	0.6689453125	247.2316743758	0.00013018798828125	0.66876220703125
711	0.66650390625	247.256074375738	0.000127349853515625	0.666351318359375
712	0.6640625	247.280474375677	0.00012481689453125	0.663848876953125
713	0.66162109375	247.304874375615	0.000122039794921875	0.6614990234375
714	0.6591796875	247.329274375554	0.000119415283203125	0.659027099609375
715	0.65673828125	247.353674375492	0.000116729736328125	0.656646728515625
716	0.654296875	247.37807437543	0.0001143798828125	0.654144287109375
717	0.65185546875	247.402474375369	0.00011212158203125	0.6517333984375
718	0.6494140625	247.426874375307	0.000109527587890625	0.6492919921875
719	0.64697265625	247.451274375246	0.000107513427734375	0.64678955078125
720	0.64453125	247.475674375184	0.000105133056640625	0.644439697265625
721	0.64208984375	247.500074375122	0.000102996826171875	0.641998291015625
722	0.6396484375	247.524474375061	0.000100860595703125	0.6395263671875
723	0.63720703125	247.548874374999	9.8480224609375E-05	0.637115478515625
724	0.634765625	247.573274374938	9.637451171875E-05	0.634613037109375
725	0.63232421875	247.597674374876	9.429931640625E-05	0.63226318359375
726	0.6298828125	247.622074374814	9.2437744140625E-05	0.62982177734375
727	0.62744140625	247.646474374753	9.063720703125E-05	0.627288818359375
728	0.625	247.670874374691	8.880615234375E-05	0.624725341796875
729	0.62255859375	247.69527437463	8.7005615234375E-05	0.622314453125
730	0.6201171875	247.719674374568	8.5205078125E-05	0.61993408203125
731	0.61767578125	247.744074374506	8.33740234375E-05	0.617462158203125
732	0.615234375	247.768474374445	8.14208984375E-05	0.615020751953125
733	0.61279296875	247.792874374383	7.9803466796875E-05	0.612579345703125
734	0.6103515625	247.817274374322	7.8155517578125E-05	0.61016845703125
735	0.60791015625	247.84167437426	7.647705078125E-05	0.60772705078125
736	0.60546875	247.866074374198	7.4859619140625E-05	0.605224609375
737	0.60302734375	247.890474374137	7.3150634765625E-05	0.60284423828125
738	0.6005859375	247.914874374075	7.1807861328125E-05	0.600341796875
739	0.59814453125	247.939274374014	7.0281982421875E-05	0.5980224609375
740	0.595703125	247.963674373952	6.9091796875E-05	0.59552001953125
741	0.59326171875	247.98807437389	6.7657470703125E-05	0.59307861328125
742	0.5908203125	248.012474373829	6.6314697265625E-05	0.59063720703125
743	0.58837890625	248.036874373767	6.4697265625E-05	0.588226318359375
744	0.5859375	248.061274373705	6.3568115234375E-05	0.585784912109375
745	0.58349609375	248.085674373644	6.219482421875E-05	0.58331298828125
746	0.5810546875	248.110074373582	6.0699462890625E-05	0.580841064453125
747	0.57861328125	248.134474373521	5.96923828125E-05	0.578460693359375
748	0.576171875	248.158874373459	5.8502197265625E-05	0.57598876953125
749	0.57373046875	248.183274373397	5.731201171875E-05	0.5736083984375
750	0.5712890625	248.207674373336	5.5877685546875E-05	0.571075439453125
751	0.56884765625	248.232074373274	5.487060546875E-05	0.568695068359375
752	0.56640625	248.256474373213	5.3558349609375E-05	0.56622314453125
753	0.56396484375	248.280874373151	5.2581787109375E-05	0.5638427734375
754	0.5615234375	248.305274373089	5.145263671875E-05	0.561309814453125
755	0.55908203125	248.329674373028	5.0506591796875E-05	0.55889892578125
756	0.556640625	248.354074372966	4.92889404296875E-05	0.55645751953125
757	0.55419921875	248.378474372905	4.86083984375E-05	0.554046630859375
758	0.5517578125	248.402874372843	4.7686767578125E-05	0.551666259765625
759	0.54931640625	248.427274372781	4.6649169921875E-05	0.5491943359375
760	0.546875	248.45167437272	4.57855224609375E-05	0.5467529296875
761	0.54443359375	248.476074372658	4.50286865234375E-05	0.544281005859375
762	0.5419921875	248.500474372597	4.39239501953125E-05	0.541900634765625
763	0.53955078125	248.524874372535	4.31671142578125E-05	0.539398193359375
764	0.537109375	248.549274372473	4.23004150390625E-05	0.5369873046875
765	0.53466796875	248.573674372412	4.14886474609375E-05	0.534576416015625
766	0.5322265625	248.59807437235	4.0557861328125E-05	0.532135009765625
767	0.52978515625	248.622474372289	3.96881103515625E-05	0.5296630859375
768	0.52734375	248.646874372227	3.89984130859375E-05	0.5272216796875
769	0.52490234375	248.671274372165	3.82720947265625E-05	0.524749755859375
770	0.5224609375	248.695674372104	3.7579345703125E-05	0.522308349609375
771	0.52001953125	248.720074372042	3.68865966796875E-05	0.5198974609375
772	0.517578125	248.744474371981	3.62396240234375E-05	0.517425537109375
773	0.51513671875	248.768874371919	3.5455322265625E-05	0.5150146484375
774	0.5126953125	248.793274371857	3.4661865234375E-05	0.512603759765625
775	0.51025390625	248.817674371796	3.40972900390625E-05	0.5101318359375
776	0.5078125	248.842074371734	3.341064453125E-05	0.5076904296875
777	0.50537109375	248.866474371673	3.29010009765625E-05	0.505218505859375
778	0.5029296875	248.890874371611	3.22967529296875E-05	0.502838134765625
779	0.50048828125	248.915274371549	3.17291259765625E-05	0.500335693359375
780	0.498046875	248.939674371488	3.15277099609375E-05	0.497955322265625
781	0.49560546875	248.964074371426	3.0615234375E-05	0.4954833984375
782	0.4931640625	248.988474371365	3.00140380859375E-05	0.4930419921875
783	0.49072265625	249.012874371303	2.9425048828125E-05	0.4906005859375
784	0.48828125	249.037274371241	2.89581298828125E-05	0.488189697265625
785	0.48583984375	249.06167437118	2.83355712890625E-05	0.48577880859375
786	0.4833984375	249.086074371118	2.79449462890625E-05	0.483306884765625
787	0.48095703125	249.110474371057	2.75482177734375E-05	0.480865478515625
788	0.478515625	249.134874370995	2.69989013671875E-05	0.4783935546875
789	0.47607421875	249.159274370933	2.6422119140625E-05	0.47601318359375
790	0.4736328125	249.183674370872	2.60406494140625E-05	0.473541259765625
791	0.47119140625	249.20807437081	2.56561279296875E-05	0.471099853515625
792	0.46875	249.232474370748	2.52716064453125E-05	0.4686279296875
793	0.46630859375	249.256874370687	2.48626708984375E-05	0.4661865234375
794	0.4638671875	249.281274370625	2.47161865234375E-05	0.4638671875
795	0.46142578125	249.305674370564	2.41363525390625E-05	0.46136474609375
796	0.458984375	249.330074370502	2.37579345703125E-05	0.458953857421875
797	0.45654296875	249.35447437044	2.3602294921875E-05	0.456451416015625
798	0.4541015625	249.378874370379	2.3077392578125E-05	0.454010009765625
799	0.45166015625	249.403274370317	2.2760009765625E-05	0.451568603515625
800	0.44921875	249.427674370256	2.24884033203125E-05	0.44915771484375
801	0.44677734375	249.452074370194	2.20855712890625E-05	0.44671630859375
802	0.4443359375	249.476474370132	2.1881103515625E-05	0.44427490234375
803	0.44189453125	249.500874370071	2.16156005859375E-05	0.441864013671875
804	0.439453125	249.525274370009	2.1307373046875E-05	0.439361572265625
805	0.43701171875	249.549674369948	2.09228515625E-05	0.436981201171875
806	0.4345703125	249.574074369886	2.05291748046875E-05	0.434539794921875
807	0.43212890625	249.598474369824	2.01690673828125E-05	0.43212890625
808	0.4296875	249.622874369763	2.00531005859375E-05	0.42962646484375
809	0.42724609375	249.647274369701	1.9677734375E-05	0.427154541015625
810	0.4248046875	249.67167436964	1.9329833984375E-05	0.42474365234375
811	0.42236328125	249.696074369578	1.90460205078125E-05	0.422332763671875
812	0.419921875	249.720474369516	1.8902587890625E-05	0.41986083984375
813	0.41748046875	249.744874369455	1.8670654296875E-05	0.41748046875
814	0.4150390625	249.769274369393	1.85089111328125E-05	0.414947509765625
815	0.41259765625	249.793674369332	1.8133544921875E-05	0.41253662109375
816	0.41015625	249.81807436927	1.77886962890625E-05	0.41009521484375
817	0.40771484375	249.842474369208	1.7486572265625E-05	0.40765380859375
818	0.4052734375	249.866874369147	1.72760009765625E-05	0.40521240234375
819	0.40283203125	249.891274369085	1.710205078125E-05	0.402801513671875
820	0.400390625	249.915674369024	1.6876220703125E-05	0.40032958984375
821	0.39794921875	249.940074368962	1.6619873046875E-05	0.39794921875
822	0.3955078125	249.9644743689	1.646728515625E-05	0.39544677734375
823	0.39306640625	249.988874368839	1.630859375E-05	0.393035888671875
824	0.390625	250.013274368777	1.60491943359375E-05	0.390594482421875
825	0.38818359375	250.037674368716	1.583251953125E-05	0.38818359375
826	0.3857421875	250.062074368654	1.573486328125E-05	0.3857421875
827	0.38330078125	250.086474368592	1.5582275390625E-05	0.38323974609375
828	0.380859375	250.110874368531	1.53900146484375E-05	0.38079833984375
829	0.37841796875	250.135274368469	1.502685546875E-05	0.378387451171875
830	0.3759765625	250.159674368408	1.51580810546875E-05	0.375946044921875
831	0.37353515625	250.184074368346	1.50360107421875E-05	0.373504638671875
832	0.37109375	250.208474368284	1.4764404296875E-05	0.37103271484375
833	0.36865234375	250.232874368223	1.45782470703125E-05	0.368682861328125
834	0.3662109375	250.257274368161	1.44622802734375E-05	0.366180419921875
835	0.36376953125	250.2816743681	1.4190673828125E-05	0.363739013671875
836	0.361328125	250.306074368038	1.41021728515625E-05	0.361297607421875
837	0.35888671875	250.330474367976	1.38214111328125E-05	0.35882568359375
838	0.3564453125	250.354874367915	1.3677978515625E-05	0.356414794921875
839	0.35400390625	250.379274367853	1.36474609375E-05	0.354034423828125
840	0.3515625	250.403674367791	1.34368896484375E-05	0.35150146484375
841	0.34912109375	250.42807436773	1.329345703125E-05	0.34906005859375
842	0.3466796875	250.452474367668	1.3055419921875E-05	0.3466796875
843	0.34423828125	250.476874367607	1.29638671875E-05	0.344268798828125
844	0.341796875	250.501274367545	1.28631591796875E-05	0.341796875
845	0.33935546875	250.525674367483	1.26312255859375E-05	0.339324951171875
846	0.3369140625	250.550074367422	1.26373291015625E-05	0.336822509765625
847	0.33447265625	250.57447436736	1.23870849609375E-05	0.33441162109375
848	0.33203125	250.598874367299	1.226806640625E-05	0.33203125
849	0.32958984375	250.623274367237	1.2078857421875E-05	0.329559326171875
850	0.3271484375	250.647674367175	1.20330810546875E-05	0.327117919921875
851	0.32470703125	250.672074367114	1.195068359375E-05	0.324676513671875
852	0.322265625	250.696474367052	1.17919921875E-05	0.322235107421875
853	0.31982421875	250.720874366991	1.16912841796875E-05	0.31988525390625
854	0.3173828125	250.745274366929	1.14013671875E-05	0.317413330078125
855	0.31494140625	250.769674366867	1.14990234375E-05	0.314910888671875
856	0.3125	250.794074366806	1.11236572265625E-05	0.312530517578125
857	0.31005859375	250.818474366744	1.11175537109375E-05	0.30999755859375
858	0.3076171875	250.842874366683	1.10870361328125E-05	0.3076171875
859	0.30517578125	250.867274366621	1.0888671875E-05	0.305145263671875
860	0.302734375	250.891674366559	1.0723876953125E-05	0.30267333984375
861	0.30029296875	250.916074366498	1.06536865234375E-05	0.30029296875
862	0.2978515625	250.940474366436	1.0516357421875E-05	0.29779052734375
863	0.29541015625	250.964874366375	1.05010986328125E-05	0.29541015625
864	0.29296875	250.989274366313	1.02294921875E-05	0.29296875
865	0.29052734375	251.013674366251	1.0076904296875E-05	0.290557861328125
866	0.2880859375	251.03807436619	1.00494384765625E-05	0.288116455078125
867	0.28564453125	251.062474366128	9.9365234375E-06	0.285675048828125
868	0.283203125	251.086874366067	9.8480224609375E-06	0.28314208984375
869	0.28076171875	251.111274366005	9.6893310546875E-06	0.28076171875
870	0.2783203125	251.135674365943	9.5794677734375E-06	0.2783203125
871	0.27587890625	251.160074365882	9.4970703125E-06	0.27581787109375
872	0.2734375	251.18447436582	9.38720703125E-06	0.273223876953125
873	0.27099609375	251.208874365759	9.21630859375E-06	0.270843505859375
874	0.2685546875	251.233274365697	9.0423583984375E-06	0.268402099609375
875	0.26611328125	251.257674365635	9.033203125E-06	0.26593017578125
876	0.263671875	251.282074365574	8.953857421875E-06	0.263519287109375
877	0.26123046875	251.306474365512	8.868408203125E-06	0.261077880859375
878	0.2587890625	251.330874365451	8.721923828125E-06	0.258697509765625
879	0.25634765625	251.355274365389	8.4686279296875E-06	0.256256103515625
880	0.25390625	251.379674365327	8.465576171875E-06	0.253753662109375
881	0.25146484375	251.404074365266	8.4320068359375E-06	0.251312255859375
882	0.2490234375	251.428474365204	8.3282470703125E-06	0.2489013671875
883	0.24658203125	251.452874365143	8.1695556640625E-06	0.246490478515625
884	0.244140625	251.477274365081	8.1329345703125E-06	0.2440185546875
885	0.24169921875	251.501674365019	8.0291748046875E-06	0.2415771484375
886	0.2392578125	251.526074364958	7.9925537109375E-06	0.2391357421875
887	0.23681640625	251.550474364896	7.89794921875E-06	0.236724853515625
888	0.234375	251.574874364834	7.6690673828125E-06	0.2342529296875
889	0.23193359375	251.599274364773	7.611083984375E-06	0.2318115234375
890	0.2294921875	251.623674364711	7.550048828125E-06	0.22930908203125
891	0.22705078125	251.64807436465	7.3333740234375E-06	0.2269287109375
892	0.224609375	251.672474364588	7.2906494140625E-06	0.22442626953125
893	0.22216796875	251.696874364526	7.147216796875E-06	0.222015380859375
894	0.2197265625	251.721274364465	7.1014404296875E-06	0.21966552734375
895	0.21728515625	251.745674364403	7.0068359375E-06	0.217132568359375
896	0.21484375	251.770074364342	6.9427490234375E-06	0.2147216796875
897	0.21240234375	251.79447436428	6.8328857421875E-06	0.212371826171875
898	0.2099609375	251.818874364218	6.805419921875E-06	0.2098388671875
899	0.20751953125	251.843274364157	6.7138671875E-06	0.2073974609375
900	0.205078125	251.867674364095	6.6192626953125E-06	0.204925537109375
901	0.20263671875	251.892074364034	6.50634765625E-06	0.2025146484375
902	0.2001953125	251.916474363972	6.414794921875E-06	0.200103759765625
903	0.19775390625	251.94087436391	6.35986328125E-06	0.197601318359375
904	0.1953125	251.965274363849	6.2255859375E-06	0.195220947265625
905	0.19287109375	251.989674363787	6.1279296875E-06	0.192779541015625
906	0.1904296875	252.014074363726	6.09130859375E-06	0.190338134765625
907	0.18798828125	252.038474363664	5.902099609375E-06	0.187896728515625
908	0.185546875	252.062874363602	5.792236328125E-06	0.185455322265625
909	0.18310546875	252.087274363541	5.72509765625E-06	0.1829833984375
910	0.1806640625	252.111674363479	5.6243896484375E-06	0.180572509765625
911	0.17822265625	252.136074363418	5.5328369140625E-06	0.178131103515625
912	0.17578125	252.160474363356	5.4473876953125E-06	0.175750732421875
913	0.17333984375	252.184874363294	5.3924560546875E-06	0.173187255859375
914	0.1708984375	252.209274363233	5.322265625E-06	0.1707763671875
915	0.16845703125	252.233674363171	5.2215576171875E-06	0.16839599609375
916	0.166015625	252.25807436311	5.1025390625E-06	0.16595458984375
917	0.16357421875	252.282474363048	5.0445556640625E-06	0.16351318359375
918	0.1611328125	252.306874362986	4.949951171875E-06	0.1610107421875
919	0.15869140625	252.331274362925	4.84222412109375E-06	0.158599853515625
920	0.15625	252.355674362863	4.72686767578125E-06	0.15618896484375
921	0.15380859375	252.380074362802	4.71038818359375E-06	0.15374755859375
922	0.1513671875	252.40447436274	4.69482421875E-06	0.15130615234375
923	0.14892578125	252.428874362678	4.60357666015625E-06	0.14886474609375
924	0.146484375	252.453274362617	4.51202392578125E-06	0.14642333984375
925	0.14404296875	252.477674362555	4.40704345703125E-06	0.144012451171875
926	0.1416015625	252.502074362494	4.2999267578125E-06	0.14154052734375
927	0.13916015625	252.526474362432	4.24835205078125E-06	0.139129638671875
928	0.13671875	252.55087436237	4.0911865234375E-06	0.136688232421875
929	0.13427734375	252.575274362309	4.0704345703125E-06	0.134307861328125
930	0.1318359375	252.599674362247	3.92669677734375E-06	0.131805419921875
931	0.12939453125	252.624074362186	3.85711669921875E-06	0.129425048828125
932	0.126953125	252.648474362124	3.79180908203125E-06	0.126983642578125
933	0.12451171875	252.672874362062	3.70849609375E-06	0.12451171875
934	0.1220703125	252.697274362001	3.61968994140625E-06	0.1220703125
935	0.11962890625	252.721674361939	3.56292724609375E-06	0.119598388671875
936	0.1171875	252.746074361878	3.531494140625E-06	0.11712646484375
937	0.11474609375	252.770474361816	3.44940185546875E-06	0.114715576171875
938	0.1123046875	252.794874361754	3.3624267578125E-06	0.11224365234375
939	0.10986328125	252.819274361693	3.272705078125E-06	0.10986328125
940	0.107421875	252.843674361631	3.17626953125E-06	0.107452392578125
941	0.10498046875	252.868074361569	3.106689453125E-06	0.104949951171875
942	0.1025390625	252.892474361508	3.02734375E-06	0.102569580078125
943	0.10009765625	252.916874361446	2.94219970703125E-06	0.100128173828125
944	0.09765625	252.941274361385	2.87567138671875E-06	0.097625732421875
945	0.09521484375	252.965674361323	2.796630859375E-06	0.09521484375
946	0.0927734375	252.990074361261	2.68829345703125E-06	0.0927734375
947	0.09033203125	253.0144743612	2.58209228515625E-06	0.09033203125
948	0.087890625	253.038874361138	2.53448486328125E-06	0.087860107421875
949	0.08544921875	253.063274361077	2.49176025390625E-06	0.08544921875
950	0.0830078125	253.087674361015	2.413330078125E-06	0.08306884765625
951	0.08056640625	253.112074360953	2.31170654296875E-06	0.080596923828125
952	0.078125	253.136474360892	2.23541259765625E-06	0.078125
953	0.07568359375	253.16087436083	2.1539306640625E-06	0.075714111328125
954	0.0732421875	253.185274360769	2.08160400390625E-06	0.07330322265625
955	0.07080078125	253.209674360707	2.0135498046875E-06	0.070770263671875
956	0.068359375	253.234074360645	1.9439697265625E-06	0.068359375
957	0.06591796875	253.258474360584	1.868896484375E-06	0.06591796875
958	0.0634765625	253.282874360522	1.81732177734375E-06	0.06353759765625
959	0.06103515625	253.307274360461	1.75537109375E-06	0.061126708984375
960	0.05859375	253.331674360399	1.6693115234375E-06	0.058685302734375
961	0.05615234375	253.356074360337	1.58477783203125E-06	0.05615234375
962	0.0537109375	253.380474360276	1.52740478515625E-06	0.05377197265625
963	0.05126953125	253.404874360214	1.45782470703125E-06	0.051300048828125
964	0.048828125	253.429274360153	1.3983154296875E-06	0.04896240234375
965	0.04638671875	253.453674360091	1.317138671875E-06	0.046533203125
966	0.0439453125	253.478074360029	1.23260498046875E-06	0.04410400390625
967	0.04150390625	253.502474359968	1.15936279296875E-06	0.041650390625
968	0.0390625	253.526874359906	1.1102294921875E-06	0.0391998291015625
969	0.03662109375	253.551274359845	1.03485107421875E-06	0.036761474609375
970	0.0341796875	253.575674359783	9.48486328125E-07	0.0343292236328125
971	0.03173828125	253.600074359721	8.8623046875E-07	0.031878662109375
972	0.029296875	253.62447435966	8.2000732421875E-07	0.0294647216796875
973	0.02685546875	253.648874359598	7.5653076171875E-07	0.02701416015625
974	0.0244140625	253.673274359537	6.768798828125E-07	0.0245574951171875
975	0.02197265625	253.697674359475	6.0577392578125E-07	0.022113037109375
976	0.01953125	253.722074359413	5.535888671875E-07	0.0196746826171875
977	0.01708984375	253.746474359352	4.9072265625E-07	0.017236328125
978	0.0146484375	253.77087435929	4.14794921875E-07	0.014788818359375
979	0.01220703125	253.795274359229	3.32733154296875E-07	0.0123443603515625
980	0.009765625	253.819674359167	2.62969970703125E-07	0.0099151611328125
981	0.00732421875	253.844074359105	2.06329345703125E-07	0.0074951171875
982	0.0048828125	253.868474359044	1.4178466796875E-07	0.00504455566406251
983	0.00244140625	253.892874358982	6.103515625E-08	0.0025970458984375
984	0	253.917274358921	-1.783447265625E-08	0.000143432617187494
985	0.00244140625	253.941674358859	6.2255859375E-08	0.00261535644531249
986	0.0048828125	253.966074358797	1.44622802734375E-07	0.00504150390624999
987	0.00732421875	253.990474358736	2.1441650390625E-07	0.00745849609375
988	0.009765625	254.014874358674	2.74658203125E-07	0.0098876953125
989	0.01220703125	254.039274358612	3.40545654296875E-07	0.0123687744140625
990	0.0146484375	254.063674358551	4.22943115234375E-07	0.0148101806640625
991	0.01708984375	254.088074358489	4.998779296875E-07	0.017242431640625
992	0.01953125	254.112474358428	5.609130859375E-07	0.019671630859375
993	0.02197265625	254.136874358366	6.2286376953125E-07	0.0221160888671875
