Index	Potential applied (V)	Time (s)	WE(1).Current (A)	WE(1).Potential (V)
1	0.00244140625	6.70794398306407	7.7667236328125E-08	0.00258789062500001
2	0.0048828125	6.73234398300247	1.666259765625E-07	0.00499877929687501
3	0.00732421875	6.75674398294086	2.40753173828125E-07	0.0074462890625
4	0.009765625	6.78114398287926	3.02764892578125E-07	0.0098541259765625
5	0.01220703125	6.80554398281765	3.76129150390625E-07	0.0123504638671875
6	0.0146484375	6.82994398275605	4.65057373046875E-07	0.014794921875
7	0.01708984375	6.85434398269445	5.4931640625E-07	0.0172393798828125
8	0.01953125	6.87874398263284	6.072998046875E-07	0.01966552734375
9	0.02197265625	6.90314398257124	6.7718505859375E-07	0.0221160888671875
10	0.0244140625	6.92754398250963	7.830810546875E-07	0.024554443359375
11	0.02685546875	6.95194398244803	8.746337890625E-07	0.0270050048828125
12	0.029296875	6.97634398238642	9.4879150390625E-07	0.0294342041015625
13	0.03173828125	7.00074398232482	1.014404296875E-06	0.0318572998046875
14	0.0341796875	7.02514398226322	1.09375E-06	0.0343353271484375
15	0.03662109375	7.04954398220161	1.17523193359375E-06	0.0367462158203125
16	0.0390625	7.07394398214001	1.2713623046875E-06	0.0391998291015625
17	0.04150390625	7.0983439820784	1.34368896484375E-06	0.0416290283203125
18	0.0439453125	7.1227439820168	1.40838623046875E-06	0.0441070556640625
19	0.04638671875	7.1471439819552	1.5008544921875E-06	0.0465179443359375
20	0.048828125	7.17154398189359	1.600341796875E-06	0.0489959716796875
21	0.05126953125	7.19594398183199	1.63726806640625E-06	0.05108642578125
22	0.0537109375	7.22034398177038	1.712646484375E-06	0.053466796875
23	0.05615234375	7.24474398170878	1.793212890625E-06	0.055938720703125
24	0.05859375	7.26914398164718	1.888427734375E-06	0.058380126953125
25	0.06103515625	7.29354398158557	1.9873046875E-06	0.060821533203125
26	0.0634765625	7.31794398152397	2.05902099609375E-06	0.06317138671875
27	0.06591796875	7.34234398146236	2.12158203125E-06	0.06561279296875
28	0.068359375	7.36674398140076	2.21649169921875E-06	0.068023681640625
29	0.07080078125	7.39114398133916	2.29949951171875E-06	0.07049560546875
30	0.0732421875	7.41554398127755	2.406005859375E-06	0.07281494140625
31	0.07568359375	7.43994398121595	2.4420166015625E-06	0.075286865234375
32	0.078125	7.46434398115434	2.52532958984375E-06	0.077728271484375
33	0.08056640625	7.48874398109274	2.61138916015625E-06	0.08013916015625
34	0.0830078125	7.51314398103113	2.6904296875E-06	0.082550048828125
35	0.08544921875	7.53754398096953	2.74017333984375E-06	0.084991455078125
36	0.087890625	7.56194398090793	2.8326416015625E-06	0.08740234375
37	0.09033203125	7.58634398084632	2.9443359375E-06	0.08984375
38	0.0927734375	7.61074398078472	3.067626953125E-06	0.092254638671875
39	0.09521484375	7.63514398072311	3.143310546875E-06	0.095123291015625
40	0.09765625	7.65954398066151	3.21746826171875E-06	0.09765625
41	0.10009765625	7.68394398059991	3.2421875E-06	0.10009765625
42	0.1025390625	7.7083439805383	3.406982421875E-06	0.1025390625
43	0.10498046875	7.7327439804767	3.4979248046875E-06	0.10498046875
44	0.107421875	7.75714398041509	3.58123779296875E-06	0.10736083984375
45	0.10986328125	7.78154398035349	3.63494873046875E-06	0.109832763671875
46	0.1123046875	7.80594398029189	3.682861328125E-06	0.11224365234375
47	0.11474609375	7.83034398023028	3.81134033203125E-06	0.114715576171875
48	0.1171875	7.85474398016868	3.91754150390625E-06	0.11712646484375
49	0.11962890625	7.87914398010707	3.98193359375E-06	0.11962890625
50	0.1220703125	7.90354398004547	4.0399169921875E-06	0.122039794921875
51	0.12451171875	7.92794397998387	4.10552978515625E-06	0.124481201171875
52	0.126953125	7.95234397992226	4.30145263671875E-06	0.126953125
53	0.12939453125	7.97674397986066	4.35546875E-06	0.129364013671875
54	0.1318359375	8.00114397979905	4.43084716796875E-06	0.131866455078125
55	0.13427734375	8.02554397973745	4.59991455078125E-06	0.134307861328125
56	0.13671875	8.04994397967585	4.68597412109375E-06	0.136688232421875
57	0.13916015625	8.07434397961424	4.722900390625E-06	0.139129638671875
58	0.1416015625	8.09874397955264	4.81842041015625E-06	0.141571044921875
59	0.14404296875	8.12314397949103	4.86297607421875E-06	0.144012451171875
60	0.146484375	8.14754397942943	4.986572265625E-06	0.146392822265625
61	0.14892578125	8.17194397936782	5.11474609375E-06	0.14886474609375
62	0.1513671875	8.19634397930622	5.23681640625E-06	0.15130615234375
63	0.15380859375	8.22074397924462	5.322265625E-06	0.153717041015625
64	0.15625	8.24514397918301	5.4046630859375E-06	0.1561279296875
65	0.15869140625	8.26954397912141	5.4779052734375E-06	0.15863037109375
66	0.1611328125	8.2939439790598	5.5816650390625E-06	0.161041259765625
67	0.16357421875	8.3183439789982	5.712890625E-06	0.16351318359375
68	0.166015625	8.3427439789366	5.8197021484375E-06	0.165863037109375
69	0.16845703125	8.36714397887499	5.8380126953125E-06	0.1683349609375
70	0.1708984375	8.39154397881339	6.0516357421875E-06	0.1707763671875
71	0.17333984375	8.41594397875178	6.11572265625E-06	0.1732177734375
72	0.17578125	8.44034397869018	6.34765625E-06	0.175628662109375
73	0.17822265625	8.46474397862858	6.341552734375E-06	0.178131103515625
74	0.1806640625	8.48914397856697	6.5155029296875E-06	0.180572509765625
75	0.18310546875	8.51354397850537	6.475830078125E-06	0.18304443359375
76	0.185546875	8.53794397844376	6.5826416015625E-06	0.1854248046875
77	0.18798828125	8.56234397838216	6.689453125E-06	0.187835693359375
78	0.1904296875	8.58674397832056	6.7413330078125E-06	0.190338134765625
79	0.19287109375	8.61114397825895	6.927490234375E-06	0.192779541015625
80	0.1953125	8.63554397819735	6.9732666015625E-06	0.1951904296875
81	0.19775390625	8.65994397813574	7.1380615234375E-06	0.197662353515625
82	0.2001953125	8.68434397807414	7.2784423828125E-06	0.20013427734375
83	0.20263671875	8.70874397801254	7.3486328125E-06	0.202545166015625
84	0.205078125	8.73314397795093	7.5103759765625E-06	0.204986572265625
85	0.20751953125	8.75754397788933	7.586669921875E-06	0.207305908203125
86	0.2099609375	8.78194397782772	7.7728271484375E-06	0.2098388671875
87	0.21240234375	8.80634397776612	7.891845703125E-06	0.212249755859375
88	0.21484375	8.83074397770451	7.9071044921875E-06	0.214691162109375
89	0.21728515625	8.85514397764291	8.0596923828125E-06	0.2171630859375
90	0.2197265625	8.87954397758131	8.197021484375E-06	0.219635009765625
91	0.22216796875	8.9039439775197	8.2794189453125E-06	0.22210693359375
92	0.224609375	8.9283439774581	8.3404541015625E-06	0.224456787109375
93	0.22705078125	8.95274397739649	8.38623046875E-06	0.2269287109375
94	0.2294921875	8.97714397733489	8.544921875E-06	0.2293701171875
95	0.23193359375	9.00154397727329	8.59375E-06	0.2318115234375
96	0.234375	9.02594397721168	8.69140625E-06	0.2342529296875
97	0.23681640625	9.05034397715008	8.87451171875E-06	0.236663818359375
98	0.2392578125	9.07474397708847	9.1552734375E-06	0.23907470703125
99	0.24169921875	9.09914397702687	9.1705322265625E-06	0.24151611328125
100	0.244140625	9.12354397696527	9.1949462890625E-06	0.24395751953125
101	0.24658203125	9.14794397690366	9.326171875E-06	0.24639892578125
102	0.2490234375	9.17234397684206	9.5184326171875E-06	0.24884033203125
103	0.25146484375	9.19674397678045	9.564208984375E-06	0.2513427734375
104	0.25390625	9.22114397671885	9.7320556640625E-06	0.253692626953125
105	0.25634765625	9.24554397665725	9.86328125E-06	0.2562255859375
106	0.2587890625	9.26994397659564	9.9853515625E-06	0.258636474609375
107	0.26123046875	9.29434397653404	1.02203369140625E-05	0.261077880859375
108	0.263671875	9.31874397647243	1.0186767578125E-05	0.26348876953125
109	0.26611328125	9.34314397641083	1.02447509765625E-05	0.265960693359375
110	0.2685546875	9.36754397634922	1.0369873046875E-05	0.26837158203125
111	0.27099609375	9.39194397628762	1.051025390625E-05	0.270782470703125
112	0.2734375	9.41634397622602	1.06842041015625E-05	0.27325439453125
113	0.27587890625	9.44074397616441	1.083984375E-05	0.2757568359375
114	0.2783203125	9.46514397610281	1.0931396484375E-05	0.278167724609375
115	0.28076171875	9.4895439760412	1.10992431640625E-05	0.28057861328125
116	0.283203125	9.5139439759796	1.11724853515625E-05	0.28302001953125
117	0.28564453125	9.538343975918	1.12762451171875E-05	0.28546142578125
118	0.2880859375	9.56274397585639	1.1529541015625E-05	0.28790283203125
119	0.29052734375	9.58714397579479	1.1688232421875E-05	0.29034423828125
120	0.29296875	9.61154397573318	1.18011474609375E-05	0.292724609375
121	0.29541015625	9.63594397567158	1.1962890625E-05	0.295257568359375
122	0.2978515625	9.66034397560998	1.18865966796875E-05	0.297637939453125
123	0.30029296875	9.68474397554837	1.2091064453125E-05	0.30010986328125
124	0.302734375	9.70914397548677	1.224365234375E-05	0.30255126953125
125	0.30517578125	9.73354397542516	1.24542236328125E-05	0.30499267578125
126	0.3076171875	9.75794397536356	1.253662109375E-05	0.30743408203125
127	0.31005859375	9.78234397530196	1.263427734375E-05	0.309814453125
128	0.3125	9.80674397524035	1.28936767578125E-05	0.312225341796875
129	0.31494140625	9.83114397517875	1.302490234375E-05	0.31475830078125
130	0.3173828125	9.85554397511714	1.31011962890625E-05	0.317138671875
131	0.31982421875	9.87994397505554	1.33331298828125E-05	0.31964111328125
132	0.322265625	9.90434397499394	1.34429931640625E-05	0.322052001953125
133	0.32470703125	9.92874397493233	1.36383056640625E-05	0.324462890625
134	0.3271484375	9.95314397487073	1.405029296875E-05	0.326934814453125
135	0.32958984375	9.97754397480912	1.42059326171875E-05	0.329315185546875
136	0.33203125	10.0019439747475	1.42425537109375E-05	0.331756591796875
137	0.33447265625	10.0263439746859	1.44134521484375E-05	0.334228515625
138	0.3369140625	10.0507439746243	1.45050048828125E-05	0.336669921875
139	0.33935546875	10.0751439745627	1.4471435546875E-05	0.339111328125
140	0.341796875	10.0995439745011	1.46331787109375E-05	0.341522216796875
141	0.34423828125	10.1239439744395	1.488037109375E-05	0.343994140625
142	0.3466796875	10.1483439743779	1.50421142578125E-05	0.346405029296875
143	0.34912109375	10.1727439743163	1.531982421875E-05	0.348846435546875
144	0.3515625	10.1971439742547	1.55303955078125E-05	0.351318359375
145	0.35400390625	10.2215439741931	1.5692138671875E-05	0.353729248046875
146	0.3564453125	10.2459439741315	1.59027099609375E-05	0.356201171875
147	0.35888671875	10.2703439740699	1.60308837890625E-05	0.358612060546875
148	0.361328125	10.2947439740083	1.619873046875E-05	0.361053466796875
149	0.36376953125	10.3191439739467	1.63665771484375E-05	0.363494873046875
150	0.3662109375	10.3435439738851	1.6619873046875E-05	0.365875244140625
151	0.36865234375	10.3679439738235	1.6815185546875E-05	0.368377685546875
152	0.37109375	10.3923439737619	1.6845703125E-05	0.37078857421875
153	0.37353515625	10.4167439737002	1.70867919921875E-05	0.37322998046875
154	0.3759765625	10.4411439736386	1.7236328125E-05	0.37567138671875
155	0.37841796875	10.465543973577	1.74346923828125E-05	0.378143310546875
156	0.380859375	10.4899439735154	1.7626953125E-05	0.3804931640625
157	0.38330078125	10.5143439734538	1.77734375E-05	0.38299560546875
158	0.3857421875	10.5387439733922	1.80145263671875E-05	0.385406494140625
159	0.38818359375	10.5631439733306	1.8328857421875E-05	0.38787841796875
160	0.390625	10.587543973269	1.844482421875E-05	0.390289306640625
161	0.39306640625	10.6119439732074	1.87713623046875E-05	0.392730712890625
162	0.3955078125	10.6363439731458	1.89910888671875E-05	0.395172119140625
163	0.39794921875	10.6607439730842	1.9268798828125E-05	0.397552490234375
164	0.400390625	10.6851439730226	1.95465087890625E-05	0.40008544921875
165	0.40283203125	10.709543972961	1.99188232421875E-05	0.402496337890625
166	0.4052734375	10.7339439728994	2.01141357421875E-05	0.404876708984375
167	0.40771484375	10.7583439728378	2.04681396484375E-05	0.407318115234375
168	0.41015625	10.7827439727762	2.05718994140625E-05	0.4097900390625
169	0.41259765625	10.8071439727146	2.0928955078125E-05	0.412200927734375
170	0.4150390625	10.831543972653	2.12158203125E-05	0.414642333984375
171	0.41748046875	10.8559439725914	2.159423828125E-05	0.417083740234375
172	0.419921875	10.8803439725298	2.19696044921875E-05	0.41943359375
173	0.42236328125	10.9047439724682	2.205810546875E-05	0.421905517578125
174	0.4248046875	10.9291439724066	2.23236083984375E-05	0.424346923828125
175	0.42724609375	10.953543972345	2.26654052734375E-05	0.426788330078125
176	0.4296875	10.9779439722834	2.3065185546875E-05	0.42926025390625
177	0.43212890625	11.0023439722218	2.33917236328125E-05	0.43157958984375
178	0.4345703125	11.0267439721601	2.35992431640625E-05	0.43408203125
179	0.43701171875	11.0511439720985	2.40203857421875E-05	0.436492919921875
180	0.439453125	11.0755439720369	2.442626953125E-05	0.43896484375
181	0.44189453125	11.0999439719753	2.501220703125E-05	0.441375732421875
182	0.4443359375	11.1243439719137	2.5250244140625E-05	0.44378662109375
183	0.44677734375	11.1487439718521	2.55584716796875E-05	0.4462890625
184	0.44921875	11.1731439717905	2.60162353515625E-05	0.44866943359375
185	0.45166015625	11.1975439717289	2.6617431640625E-05	0.451080322265625
186	0.4541015625	11.2219439716673	2.6898193359375E-05	0.453521728515625
187	0.45654296875	11.2463439716057	2.72064208984375E-05	0.4559326171875
188	0.458984375	11.2707439715441	2.76885986328125E-05	0.458343505859375
189	0.46142578125	11.2951439714825	2.82440185546875E-05	0.4608154296875
190	0.4638671875	11.3195439714209	2.8717041015625E-05	0.46319580078125
191	0.46630859375	11.3439439713593	2.92205810546875E-05	0.465606689453125
192	0.46875	11.3683439712977	2.957763671875E-05	0.46807861328125
193	0.47119140625	11.3927439712361	2.99072265625E-05	0.470458984375
194	0.4736328125	11.4171439711745	3.03955078125E-05	0.4730224609375
195	0.47607421875	11.4415439711129	3.09661865234375E-05	0.475982666015625
196	0.478515625	11.4659439710513	3.1494140625E-05	0.478424072265625
197	0.48095703125	11.4903439709897	3.19488525390625E-05	0.480865478515625
198	0.4833984375	11.5147439709281	3.270263671875E-05	0.4832763671875
199	0.48583984375	11.5391439708665	3.31207275390625E-05	0.4857177734375
200	0.48828125	11.5635439708049	3.3807373046875E-05	0.4881591796875
201	0.49072265625	11.5879439707433	3.43963623046875E-05	0.4906005859375
202	0.4931640625	11.6123439706816	3.5162353515625E-05	0.4930419921875
203	0.49560546875	11.63674397062	3.5589599609375E-05	0.4954833984375
204	0.498046875	11.6611439705584	3.626708984375E-05	0.497955322265625
205	0.50048828125	11.6855439704968	3.67034912109375E-05	0.50042724609375
206	0.5029296875	11.7099439704352	3.73138427734375E-05	0.50286865234375
207	0.50537109375	11.7343439703736	3.78326416015625E-05	0.5052490234375
208	0.5078125	11.758743970312	3.90869140625E-05	0.5076904296875
209	0.51025390625	11.7831439702504	3.9544677734375E-05	0.5101318359375
210	0.5126953125	11.8075439701888	3.994140625E-05	0.512542724609375
211	0.51513671875	11.8319439701272	4.08721923828125E-05	0.5150146484375
212	0.517578125	11.8563439700656	4.16473388671875E-05	0.51739501953125
213	0.52001953125	11.880743970004	4.25811767578125E-05	0.51983642578125
214	0.5224609375	11.9051439699424	4.34051513671875E-05	0.522369384765625
215	0.52490234375	11.9295439698808	4.4232177734375E-05	0.524749755859375
216	0.52734375	11.9539439698192	4.5111083984375E-05	0.52716064453125
217	0.52978515625	11.9783439697576	4.62005615234375E-05	0.5296630859375
218	0.5322265625	12.002743969696	4.7442626953125E-05	0.53204345703125
219	0.53466796875	12.0271439696344	4.810791015625E-05	0.534515380859375
220	0.537109375	12.0515439695728	4.90692138671875E-05	0.53692626953125
221	0.53955078125	12.0759439695112	5.0201416015625E-05	0.539398193359375
222	0.5419921875	12.1003439694496	5.108642578125E-05	0.54180908203125
223	0.54443359375	12.124743969388	5.230712890625E-05	0.544342041015625
224	0.546875	12.1491439693264	5.340576171875E-05	0.5467529296875
225	0.54931640625	12.1735439692648	5.4412841796875E-05	0.549163818359375
226	0.5517578125	12.1979439692032	5.615234375E-05	0.55157470703125
227	0.55419921875	12.2223439691415	5.7220458984375E-05	0.55401611328125
228	0.556640625	12.2467439690799	5.8441162109375E-05	0.556488037109375
229	0.55908203125	12.2711439690183	5.9539794921875E-05	0.5589599609375
230	0.5615234375	12.2955439689567	6.11572265625E-05	0.561370849609375
231	0.56396484375	12.3199439688951	6.2591552734375E-05	0.563720703125
232	0.56640625	12.3443439688335	6.38427734375E-05	0.56622314453125
233	0.56884765625	12.3687439687719	6.549072265625E-05	0.568695068359375
234	0.5712890625	12.3931439687103	6.6925048828125E-05	0.57110595703125
235	0.57373046875	12.4175439686487	6.854248046875E-05	0.573516845703125
236	0.576171875	12.4419439685871	6.9915771484375E-05	0.575958251953125
237	0.57861328125	12.4663439685255	7.18994140625E-05	0.57843017578125
238	0.5810546875	12.4907439684639	7.3150634765625E-05	0.58087158203125
239	0.58349609375	12.5151439684023	7.501220703125E-05	0.583251953125
240	0.5859375	12.5395439683407	7.684326171875E-05	0.585723876953125
241	0.58837890625	12.5639439682791	7.891845703125E-05	0.58819580078125
242	0.5908203125	12.5883439682175	8.0718994140625E-05	0.590606689453125
243	0.59326171875	12.6127439681559	8.26416015625E-05	0.593017578125
244	0.595703125	12.6371439680943	8.4747314453125E-05	0.595458984375
245	0.59814453125	12.6615439680327	8.697509765625E-05	0.597900390625
246	0.6005859375	12.6859439679711	8.92333984375E-05	0.600372314453125
247	0.60302734375	12.7103439679095	9.173583984375E-05	0.602783203125
248	0.60546875	12.7347439678479	9.4268798828125E-05	0.60528564453125
249	0.60791015625	12.7591439677863	9.625244140625E-05	0.607666015625
250	0.6103515625	12.7835439677247	9.8785400390625E-05	0.610107421875
251	0.61279296875	12.807943967663	0.000101837158203125	0.612579345703125
252	0.615234375	12.8323439676014	0.000104705810546875	0.614959716796875
253	0.61767578125	12.8567439675398	0.00010748291015625	0.61737060546875
254	0.6201171875	12.8811439674782	0.000109832763671875	0.619842529296875
255	0.62255859375	12.9055439674166	0.00011309814453125	0.622283935546875
256	0.625	12.929943967355	0.00011602783203125	0.624725341796875
257	0.62744140625	12.9543439672934	0.000119781494140625	0.62713623046875
258	0.6298828125	12.9787439672318	0.00012310791015625	0.62957763671875
259	0.63232421875	13.0031439671702	0.00012701416015625	0.631988525390625
260	0.634765625	13.0275439671086	0.000130340576171875	0.63446044921875
261	0.63720703125	13.051943967047	0.00013421630859375	0.636810302734375
262	0.6396484375	13.0763439669854	0.000138092041015625	0.639312744140625
263	0.64208984375	13.1007439669238	0.000142059326171875	0.641693115234375
264	0.64453125	13.1251439668622	0.0001466064453125	0.644195556640625
265	0.64697265625	13.1495439668006	0.00015118408203125	0.646514892578125
266	0.6494140625	13.173943966739	0.0001556396484375	0.648895263671875
267	0.65185546875	13.1983439666774	0.000160858154296875	0.651458740234375
268	0.654296875	13.2227439666158	0.000165740966796875	0.65386962890625
269	0.65673828125	13.2471439665542	0.000170654296875	0.65631103515625
270	0.6591796875	13.2715439664926	0.0001761474609375	0.65869140625
271	0.66162109375	13.295943966431	0.000181610107421875	0.661163330078125
272	0.6640625	13.3203439663694	0.00018756103515625	0.663665771484375
273	0.66650390625	13.3447439663078	0.000193695068359375	0.666015625
274	0.6689453125	13.3691439662462	0.000199920654296875	0.668426513671875
275	0.67138671875	13.3935439661846	0.000206268310546875	0.670867919921875
276	0.673828125	13.4179439661229	0.00021331787109375	0.673248291015625
277	0.67626953125	13.4423439660613	0.00022052001953125	0.67559814453125
278	0.6787109375	13.4667439659997	0.000227874755859375	0.678070068359375
279	0.68115234375	13.4911439659381	0.000235382080078125	0.680450439453125
280	0.68359375	13.5155439658765	0.00024365234375	0.682952880859375
281	0.68603515625	13.5399439658149	0.000252044677734375	0.685302734375
282	0.6884765625	13.5643439657533	0.000261138916015625	0.687744140625
283	0.69091796875	13.5887439656917	0.000270263671875	0.690155029296875
284	0.693359375	13.6131439656301	0.000279541015625	0.69256591796875
285	0.69580078125	13.6375439655685	0.000289154052734375	0.694915771484375
286	0.6982421875	13.6619439655069	0.000299346923828125	0.697357177734375
287	0.70068359375	13.6863439654453	0.000310333251953125	0.69976806640625
288	0.703125	13.7107439653837	0.000321197509765625	0.70294189453125
289	0.70556640625	13.7351439653221	0.00033306884765625	0.705322265625
290	0.7080078125	13.7595439652605	0.000345123291015625	0.70782470703125
291	0.71044921875	13.7839439651989	0.000357635498046875	0.710174560546875
292	0.712890625	13.8083439651373	0.000370574951171875	0.712615966796875
293	0.71533203125	13.8327439650757	0.000384124755859375	0.715087890625
294	0.7177734375	13.8571439650141	0.000398590087890625	0.71746826171875
295	0.72021484375	13.8815439649525	0.000412994384765625	0.719970703125
296	0.72265625	13.9059439648909	0.000428497314453125	0.722381591796875
297	0.72509765625	13.9303439648293	0.000444183349609375	0.724884033203125
298	0.7275390625	13.9547439647677	0.0004613037109375	0.72723388671875
299	0.72998046875	13.9791439647061	0.00047802734375	0.729736328125
300	0.732421875	14.0035439646445	0.000496002197265625	0.73211669921875
301	0.73486328125	14.0279439645828	0.00051483154296875	0.734527587890625
302	0.7373046875	14.0523439645212	0.00053375244140625	0.737030029296875
303	0.73974609375	14.0767439644596	0.0005535888671875	0.739471435546875
304	0.7421875	14.101143964398	0.0005743408203125	0.741851806640625
305	0.74462890625	14.1255439643364	0.000595703125	0.74432373046875
306	0.7470703125	14.1499439642748	0.00061798095703125	0.746795654296875
307	0.74951171875	14.1743439642132	0.0006402587890625	0.74920654296875
308	0.751953125	14.1987439641516	0.00066375732421875	0.7513427734375
309	0.75439453125	14.22314396409	0.0006884765625	0.753173828125
310	0.7568359375	14.2475439640284	0.00071380615234375	0.7562255859375
311	0.75927734375	14.2719439639668	0.0007403564453125	0.7586669921875
312	0.76171875	14.2963439639052	0.0007672119140625	0.7611083984375
313	0.76416015625	14.3207439638436	0.0007952880859375	0.7635498046875
314	0.7666015625	14.345143963782	0.000823974609375	0.765380859375
315	0.76904296875	14.3695439637204	0.00085418701171875	0.76873779296875
316	0.771484375	14.3939439636588	0.00088470458984375	0.77056884765625
317	0.77392578125	14.4183439635972	0.00091644287109375	0.772705078125
318	0.7763671875	14.4427439635356	0.00094940185546875	0.77545166015625
319	0.77880859375	14.467143963474	0.0009832763671875	0.77789306640625
320	0.78125	14.4915439634124	0.00101776123046875	0.78033447265625
321	0.78369140625	14.5159439633508	0.00105316162109375	0.782470703125
322	0.7861328125	14.5403439632892	0.001090087890625	0.78521728515625
323	0.78857421875	14.5647439632276	0.0011279296875	0.78765869140625
324	0.791015625	14.589143963166	0.0011663818359375	0.7904052734375
325	0.79345703125	14.6135439631043	0.00120635986328125	0.79315185546875
326	0.7958984375	14.6379439630427	0.0012469482421875	0.79498291015625
327	0.79833984375	14.6623439629811	0.00128875732421875	0.797119140625
328	0.80078125	14.6867439629195	0.00133209228515625	0.8001708984375
329	0.80322265625	14.7111439628579	0.00137603759765625	0.802001953125
330	0.8056640625	14.7355439627963	0.00142120361328125	0.80535888671875
331	0.80810546875	14.7599439627347	0.00146728515625	0.8074951171875
332	0.810546875	14.7843439626731	0.00151458740234375	0.80963134765625
333	0.81298828125	14.8087439626115	0.00156341552734375	0.811767578125
334	0.8154296875	14.8331439625499	0.001612548828125	0.8148193359375
335	0.81787109375	14.8575439624883	0.00166259765625	0.81756591796875
336	0.8203125	14.8819439624267	0.00171478271484375	0.819091796875
337	0.82275390625	14.9063439623651	0.001767578125	0.82183837890625
338	0.8251953125	14.9307439623035	0.00182159423828125	0.82427978515625
339	0.82763671875	14.9551439622419	0.001876220703125	0.8270263671875
340	0.830078125	14.9795439621803	0.0019317626953125	0.828857421875
341	0.83251953125	15.0039439621187	0.0019891357421875	0.83160400390625
342	0.8349609375	15.0283439620571	0.00204742431640625	0.83404541015625
343	0.83740234375	15.0527439619955	0.00210662841796875	0.83648681640625
344	0.83984375	15.0771439619339	0.00216644287109375	0.8392333984375
345	0.84228515625	15.1015439618723	0.002227783203125	0.84136962890625
346	0.8447265625	15.1259439618107	0.0022906494140625	0.84320068359375
347	0.84716796875	15.1503439617491	0.0023541259765625	0.84686279296875
348	0.849609375	15.1747439616875	0.002418212890625	0.84930419921875
349	0.85205078125	15.1991439616259	0.00248321533203125	0.8514404296875
350	0.8544921875	15.2235439615642	0.00254974365234375	0.8538818359375
351	0.85693359375	15.2479439615026	0.0026177978515625	0.855712890625
352	0.859375	15.272343961441	0.00268585205078125	0.8587646484375
353	0.86181640625	15.2967439613794	0.00275482177734375	0.860595703125
354	0.8642578125	15.3211439613178	0.00282562255859375	0.86273193359375
355	0.86669921875	15.3455439612562	0.00289703369140625	0.8660888671875
356	0.869140625	15.3699439611946	0.00296905517578125	0.867919921875
357	0.87158203125	15.394343961133	0.0030419921875	0.87066650390625
358	0.8740234375	15.4187439610714	0.003115234375	0.87249755859375
359	0.87646484375	15.4431439610098	0.003189697265625	0.87554931640625
360	0.87890625	15.4675439609482	0.003265380859375	0.87799072265625
361	0.88134765625	15.4919439608866	0.00334136962890625	0.88043212890625
362	0.8837890625	15.516343960825	0.0034173583984375	0.882568359375
363	0.88623046875	15.5407439607634	0.00349365234375	0.88531494140625
364	0.888671875	15.5651439607018	0.00357025146484375	0.887451171875
365	0.89111328125	15.5895439606402	0.00364715576171875	0.889892578125
366	0.8935546875	15.6139439605786	0.0037237548828125	0.89263916015625
367	0.89599609375	15.638343960517	0.00379913330078125	0.89508056640625
368	0.8984375	15.6627439604554	0.00387481689453125	0.8978271484375
369	0.90087890625	15.6871439603938	0.00394866943359375	0.899658203125
370	0.9033203125	15.7115439603322	0.00402130126953125	0.902099609375
371	0.90576171875	15.7359439602706	0.00409149169921875	0.904541015625
372	0.908203125	15.760343960209	0.004158935546875	0.9075927734375
373	0.91064453125	15.7847439601474	0.0042242431640625	0.91033935546875
374	0.9130859375	15.8091439600857	0.004287109375	0.9124755859375
375	0.91552734375	15.8335439600241	0.004346923828125	0.914306640625
376	0.91796875	15.8579439599625	0.00440338134765625	0.9173583984375
377	0.92041015625	15.8823439599009	0.00445770263671875	0.9197998046875
378	0.9228515625	15.9067439598393	0.00450958251953125	0.92193603515625
379	0.92529296875	15.9311439597777	0.0045587158203125	0.9246826171875
380	0.927734375	15.9555439597161	0.00460479736328125	0.92681884765625
381	0.93017578125	15.9799439596545	0.0046490478515625	0.928955078125
382	0.9326171875	16.0043439595929	0.00469146728515625	0.931396484375
383	0.93505859375	16.0287439595313	0.0047320556640625	0.93414306640625
384	0.9375	16.0531439594697	0.00477081298828125	0.9368896484375
385	0.93994140625	16.0775439594081	0.00480743408203125	0.938720703125
386	0.9423828125	16.1019439593465	0.00484283447265625	0.941162109375
387	0.94482421875	16.1263439592849	0.004876708984375	0.943603515625
388	0.947265625	16.1507439592233	0.00490936279296875	0.94635009765625
389	0.94970703125	16.1751439591617	0.00494049072265625	0.948486328125
390	0.9521484375	16.1995439591001	0.004970703125	0.9515380859375
391	0.95458984375	16.2239439590385	0.00499969482421875	0.953369140625
392	0.95703125	16.2483439589769	0.005028076171875	0.9564208984375
393	0.95947265625	16.2727439589153	0.00505523681640625	0.958251953125
394	0.9619140625	16.2971439588537	0.00508148193359375	0.96099853515625
395	0.96435546875	16.3215439587921	0.0051068115234375	0.963134765625
396	0.966796875	16.3459439587305	0.00513153076171875	0.96588134765625
397	0.96923828125	16.3703439586689	0.0051556396484375	0.968017578125
398	0.9716796875	16.3947439586073	0.00517913818359375	0.97076416015625
399	0.97412109375	16.4191439585456	0.00520172119140625	0.972900390625
400	0.9765625	16.443543958484	0.0052239990234375	0.9759521484375
401	0.97900390625	16.4679439584224	0.00524566650390625	0.977783203125
402	0.9814453125	16.4923439583608	0.0052667236328125	0.98052978515625
403	0.98388671875	16.5167439582992	0.00528717041015625	0.9832763671875
404	0.986328125	16.5411439582376	0.00530731201171875	0.985107421875
405	0.98876953125	16.565543958176	0.00532684326171875	0.9881591796875
406	0.9912109375	16.5899439581144	0.0053460693359375	0.989990234375
407	0.99365234375	16.6143439580528	0.005364990234375	0.99273681640625
408	0.99609375	16.6387439579912	0.00538299560546875	0.994873046875
409	0.99853515625	16.6631439579296	0.0054010009765625	0.99761962890625
410	1.0009765625	16.687543957868	0.005418701171875	0.999755859375
411	1.00341796875	16.7119439578064	0.00543609619140625	1.00250244140625
412	1.005859375	16.7363439577448	0.00545318603515625	1.00494384765625
413	1.00830078125	16.7607439576832	0.00546966552734375	1.007080078125
414	1.0107421875	16.7851439576216	0.00548583984375	1.00982666015625
415	1.01318359375	16.80954395756	0.00550201416015625	1.0125732421875
416	1.015625	16.8339439574984	0.00551788330078125	1.01470947265625
417	1.01806640625	16.8583439574368	0.00553314208984375	1.0174560546875
418	1.0205078125	16.8827439573752	0.00554840087890625	1.019287109375
419	1.02294921875	16.9071439573136	0.0055633544921875	1.02203369140625
420	1.025390625	16.931543957252	0.00557830810546875	1.024169921875
421	1.02783203125	16.9559439571904	0.0055926513671875	1.026611328125
422	1.0302734375	16.9803439571288	0.00560699462890625	1.0296630859375
423	1.03271484375	17.0047439570671	0.00562103271484375	1.0321044921875
424	1.03515625	17.0291439570055	0.005634765625	1.03424072265625
425	1.03759765625	17.0535439569439	0.00564849853515625	1.03729248046875
426	1.0400390625	17.0779439568823	0.00566162109375	1.03912353515625
427	1.04248046875	17.1023439568207	0.005675048828125	1.04156494140625
428	1.044921875	17.1267439567591	0.0056878662109375	1.043701171875
429	1.04736328125	17.1511439566975	0.00570098876953125	1.046142578125
430	1.0498046875	17.1755439566359	0.0057135009765625	1.048583984375
431	1.05224609375	17.1999439565743	0.00572601318359375	1.051025390625
432	1.0546875	17.2243439565127	0.005738525390625	1.053466796875
433	1.05712890625	17.2487439564511	0.005750732421875	1.055908203125
434	1.0595703125	17.2731439563895	0.00576263427734375	1.0589599609375
435	1.06201171875	17.2975439563279	0.0057745361328125	1.060791015625
436	1.064453125	17.3219439562663	0.0057861328125	1.0638427734375
437	1.06689453125	17.3463439562047	0.0057977294921875	1.06536865234375
438	1.0693359375	17.3707439561431	0.005809326171875	1.06842041015625
439	1.07177734375	17.3951439560815	0.00582061767578125	1.07086181640625
440	1.07421875	17.4195439560199	0.00583160400390625	1.072998046875
441	1.07666015625	17.4439439559583	0.0058428955078125	1.07574462890625
442	1.0791015625	17.4683439558967	0.0058538818359375	1.077880859375
443	1.08154296875	17.4927439558351	0.00586456298828125	1.08062744140625
444	1.083984375	17.5171439557735	0.005875244140625	1.0833740234375
445	1.08642578125	17.5415439557119	0.0058856201171875	1.08551025390625
446	1.0888671875	17.5659439556503	0.00589630126953125	1.087646484375
447	1.09130859375	17.5903439555887	0.0059063720703125	1.090087890625
448	1.09375	17.614743955527	0.005916748046875	1.09283447265625
449	1.09619140625	17.6391439554654	0.00592681884765625	1.09527587890625
450	1.0986328125	17.6635439554038	0.0059368896484375	1.09771728515625
451	1.10107421875	17.6879439553422	0.0059466552734375	1.099853515625
452	1.103515625	17.7123439552806	0.00595672607421875	1.10260009765625
453	1.10595703125	17.736743955219	0.0059661865234375	1.10504150390625
454	1.1083984375	17.7611439551574	0.0059759521484375	1.107177734375
455	1.11083984375	17.7855439550958	0.00598541259765625	1.10992431640625
456	1.11328125	17.8099439550342	0.005994873046875	1.11236572265625
457	1.11572265625	17.8343439549726	0.00600433349609375	1.114501953125
458	1.1181640625	17.858743954911	0.00601348876953125	1.116943359375
459	1.12060546875	17.8831439548494	0.00602264404296875	1.11907958984375
460	1.123046875	17.9075439547878	0.00603179931640625	1.1224365234375
461	1.12548828125	17.9319439547262	0.0060406494140625	1.12396240234375
462	1.1279296875	17.9563439546646	0.0060498046875	1.126708984375
463	1.13037109375	17.980743954603	0.006058349609375	1.12945556640625
464	1.1328125	18.0051439545414	0.00606719970703125	1.1322021484375
465	1.13525390625	18.0295439544798	0.0060760498046875	1.134033203125
466	1.1376953125	18.0539439544182	0.0060845947265625	1.1370849609375
467	1.14013671875	18.0783439543566	0.0060931396484375	1.138916015625
468	1.142578125	18.102743954295	0.00610137939453125	1.14105224609375
469	1.14501953125	18.1271439542334	0.00610992431640625	1.143798828125
470	1.1474609375	18.1515439541718	0.0061181640625	1.146240234375
471	1.14990234375	18.1759439541102	0.00612640380859375	1.1492919921875
472	1.15234375	18.2003439540485	0.0061346435546875	1.15142822265625
473	1.15478515625	18.2247439539869	0.00614288330078125	1.15386962890625
474	1.1572265625	18.2491439539253	0.00615081787109375	1.156005859375
475	1.15966796875	18.2735439538637	0.00615875244140625	1.158447265625
476	1.162109375	18.2979439538021	0.00616668701171875	1.1614990234375
477	1.16455078125	18.3223439537405	0.00617462158203125	1.1627197265625
478	1.1669921875	18.3467439536789	0.0061822509765625	1.16607666015625
479	1.16943359375	18.3711439536173	0.006190185546875	1.16790771484375
480	1.171875	18.3955439535557	0.00619781494140625	1.170654296875
481	1.17431640625	18.4199439534941	0.0062054443359375	1.173095703125
482	1.1767578125	18.4443439534325	0.00621307373046875	1.17584228515625
483	1.17919921875	18.4687439533709	0.006220703125	1.177978515625
484	1.181640625	18.4931439533093	0.00622802734375	1.18072509765625
485	1.18408203125	18.5175439532477	0.0062353515625	1.182861328125
486	1.1865234375	18.5419439531861	0.00624267578125	1.18560791015625
487	1.18896484375	18.5663439531245	0.00625	1.187744140625
488	1.19140625	18.5907439530629	0.00625732421875	1.19049072265625
489	1.19384765625	18.6151439530013	0.0062646484375	1.192626953125
490	1.1962890625	18.6395439529397	0.00627166748046875	1.19537353515625
491	1.19873046875	18.6639439528781	0.00627899169921875	1.197509765625
492	1.201171875	18.6883439528165	0.0062860107421875	1.19964599609375
493	1.19873046875	18.7127439527549	0.00627471923828125	1.197509765625
494	1.1962890625	18.7371439526933	0.006263427734375	1.19476318359375
495	1.19384765625	18.7615439526317	0.0062518310546875	1.192626953125
496	1.19140625	18.7859439525701	0.006240234375	1.190185546875
497	1.18896484375	18.8103439525084	0.0062286376953125	1.18743896484375
498	1.1865234375	18.8347439524468	0.006217041015625	1.185302734375
499	1.18408203125	18.8591439523852	0.00620513916015625	1.18255615234375
500	1.181640625	18.8835439523236	0.0061932373046875	1.180419921875
501	1.17919921875	18.907943952262	0.0061810302734375	1.17828369140625
502	1.1767578125	18.9323439522004	0.0061688232421875	1.175537109375
503	1.17431640625	18.9567439521388	0.0061566162109375	1.173095703125
504	1.171875	18.9811439520772	0.00614410400390625	1.170654296875
505	1.16943359375	19.0055439520156	0.006131591796875	1.16851806640625
506	1.1669921875	19.029943951954	0.00611907958984375	1.16607666015625
507	1.16455078125	19.0543439518924	0.00610626220703125	1.16302490234375
508	1.162109375	19.0787439518308	0.0060931396484375	1.16119384765625
509	1.15966796875	19.1031439517692	0.006080322265625	1.15875244140625
510	1.1572265625	19.1275439517076	0.00606719970703125	1.156005859375
511	1.15478515625	19.151943951646	0.00605377197265625	1.153564453125
512	1.15234375	19.1763439515844	0.00604034423828125	1.151123046875
513	1.14990234375	19.2007439515228	0.006026611328125	1.14898681640625
514	1.1474609375	19.2251439514612	0.00601287841796875	1.1468505859375
515	1.14501953125	19.2495439513996	0.00599884033203125	1.143798828125
516	1.142578125	19.273943951338	0.00598480224609375	1.141357421875
517	1.14013671875	19.2983439512764	0.005970458984375	1.13922119140625
518	1.1376953125	19.3227439512148	0.005955810546875	1.136474609375
519	1.13525390625	19.3471439511532	0.005941162109375	1.1346435546875
520	1.1328125	19.3715439510916	0.005926513671875	1.131591796875
521	1.13037109375	19.3959439510299	0.0059112548828125	1.12945556640625
522	1.1279296875	19.4203439509683	0.00589599609375	1.126708984375
523	1.12548828125	19.4447439509067	0.00588043212890625	1.1248779296875
524	1.123046875	19.4691439508451	0.0058648681640625	1.12213134765625
525	1.12060546875	19.4935439507835	0.0058489990234375	1.12030029296875
526	1.1181640625	19.5179439507219	0.00583282470703125	1.116943359375
527	1.11572265625	19.5423439506603	0.00581634521484375	1.11480712890625
528	1.11328125	19.5667439505987	0.00579986572265625	1.11175537109375
529	1.11083984375	19.5911439505371	0.0057830810546875	1.1102294921875
530	1.1083984375	19.6155439504755	0.0057659912109375	1.107177734375
531	1.10595703125	19.6399439504139	0.00574859619140625	1.1053466796875
532	1.103515625	19.6643439503523	0.00573089599609375	1.10260009765625
533	1.10107421875	19.6887439502907	0.005712890625	1.1004638671875
534	1.0986328125	19.7131439502291	0.005694580078125	1.09771728515625
535	1.09619140625	19.7375439501675	0.00567596435546875	1.09466552734375
536	1.09375	19.7619439501059	0.00565704345703125	1.092529296875
537	1.09130859375	19.7863439500443	0.0056378173828125	1.09039306640625
538	1.0888671875	19.8107439499827	0.0056182861328125	1.087646484375
539	1.08642578125	19.8351439499211	0.00559814453125	1.0858154296875
540	1.083984375	19.8595439498595	0.00557769775390625	1.0833740234375
541	1.08154296875	19.8839439497979	0.00555694580078125	1.0809326171875
542	1.0791015625	19.9083439497363	0.00553558349609375	1.0784912109375
543	1.07666015625	19.9327439496747	0.005513916015625	1.075439453125
544	1.07421875	19.9571439496131	0.00549163818359375	1.0736083984375
545	1.07177734375	19.9815439495515	0.00546875	1.0711669921875
546	1.0693359375	20.0059439494898	0.005445556640625	1.06842041015625
547	1.06689453125	20.0303439494282	0.0054217529296875	1.0662841796875
548	1.064453125	20.0547439493666	0.0053973388671875	1.06353759765625
549	1.06201171875	20.079143949305	0.005372314453125	1.06109619140625
550	1.0595703125	20.1035439492434	0.0053466796875	1.05804443359375
551	1.05712890625	20.1279439491818	0.00532012939453125	1.055908203125
552	1.0546875	20.1523439491202	0.00529296875	1.05377197265625
553	1.05224609375	20.1767439490586	0.005264892578125	1.0516357421875
554	1.0498046875	20.201143948997	0.00523590087890625	1.04888916015625
555	1.04736328125	20.2255439489354	0.00520599365234375	1.04644775390625
556	1.044921875	20.2499439488738	0.0051751708984375	1.04400634765625
557	1.04248046875	20.2743439488122	0.00514373779296875	1.04095458984375
558	1.0400390625	20.2987439487506	0.0051104736328125	1.038818359375
559	1.03759765625	20.323143948689	0.0050762939453125	1.036376953125
560	1.03515625	20.3475439486274	0.00504058837890625	1.03363037109375
561	1.03271484375	20.3719439485658	0.00500335693359375	1.03179931640625
562	1.0302734375	20.3963439485042	0.004964599609375	1.02874755859375
563	1.02783203125	20.4207439484426	0.00492401123046875	1.02691650390625
564	1.025390625	20.445143948381	0.00488128662109375	1.0247802734375
565	1.02294921875	20.4695439483194	0.0048370361328125	1.021728515625
566	1.0205078125	20.4939439482578	0.0047900390625	1.019287109375
567	1.01806640625	20.5183439481962	0.00474029541015625	1.01715087890625
568	1.015625	20.5427439481346	0.0046875	1.01531982421875
569	1.01318359375	20.567143948073	0.00463165283203125	1.01226806640625
570	1.0107421875	20.5915439480113	0.00457305908203125	1.009521484375
571	1.00830078125	20.6159439479497	0.0045098876953125	1.00738525390625
572	1.005859375	20.6403439478881	0.0044427490234375	1.004638671875
573	1.00341796875	20.6647439478265	0.0043719482421875	1.002197265625
574	1.0009765625	20.6891439477649	0.00429656982421875	1.00006103515625
575	0.99853515625	20.7135439477033	0.0042169189453125	0.99761962890625
576	0.99609375	20.7379439476417	0.00413299560546875	0.9954833984375
577	0.99365234375	20.7623439475801	0.00404510498046875	0.992431640625
578	0.9912109375	20.7867439475185	0.0039544677734375	0.99029541015625
579	0.98876953125	20.8111439474569	0.00386199951171875	0.98876953125
580	0.986328125	20.8355439473953	0.00376800537109375	0.9857177734375
581	0.98388671875	20.8599439473337	0.00367218017578125	0.982666015625
582	0.9814453125	20.8843439472721	0.00357696533203125	0.980224609375
583	0.97900390625	20.9087439472105	0.0034820556640625	0.9783935546875
584	0.9765625	20.9331439471489	0.00338775634765625	0.97564697265625
585	0.97412109375	20.9575439470873	0.003294677734375	0.97320556640625
586	0.9716796875	20.9819439470257	0.00320220947265625	0.9710693359375
587	0.96923828125	21.0063439469641	0.00311187744140625	0.9686279296875
588	0.966796875	21.0307439469025	0.00302337646484375	0.96588134765625
589	0.96435546875	21.0551439468409	0.00293609619140625	0.9637451171875
590	0.9619140625	21.0795439467793	0.002850341796875	0.9613037109375
591	0.95947265625	21.1039439467177	0.00276641845703125	0.95855712890625
592	0.95703125	21.1283439466561	0.00268402099609375	0.95611572265625
593	0.95458984375	21.1527439465945	0.002603759765625	0.953369140625
594	0.9521484375	21.1771439465329	0.00252532958984375	0.95184326171875
595	0.94970703125	21.2015439464712	0.0024481201171875	0.948486328125
596	0.947265625	21.2259439464096	0.002373046875	0.94635009765625
597	0.94482421875	21.250343946348	0.00230010986328125	0.94390869140625
598	0.9423828125	21.2747439462864	0.00222900390625	0.94207763671875
599	0.93994140625	21.2991439462248	0.002159423828125	0.9393310546875
600	0.9375	21.3235439461632	0.0020916748046875	0.9368896484375
601	0.93505859375	21.3479439461016	0.002025146484375	0.9344482421875
602	0.9326171875	21.37234394604	0.00196136474609375	0.93170166015625
603	0.93017578125	21.3967439459784	0.0018988037109375	0.92926025390625
604	0.927734375	21.4211439459168	0.00183807373046875	0.9271240234375
605	0.92529296875	21.4455439458552	0.00177947998046875	0.92437744140625
606	0.9228515625	21.4699439457936	0.001722412109375	0.92254638671875
607	0.92041015625	21.494343945732	0.00166717529296875	0.91949462890625
608	0.91796875	21.5187439456704	0.00161346435546875	0.91705322265625
609	0.91552734375	21.5431439456088	0.00156097412109375	0.91461181640625
610	0.9130859375	21.5675439455472	0.0015106201171875	0.9124755859375
611	0.91064453125	21.5919439454856	0.0014617919921875	0.90972900390625
612	0.908203125	21.616343945424	0.001414794921875	0.90728759765625
613	0.90576171875	21.6407439453624	0.00136962890625	0.90545654296875
614	0.9033203125	21.6651439453008	0.00132537841796875	0.902099609375
615	0.90087890625	21.6895439452392	0.001282958984375	0.899658203125
616	0.8984375	21.7139439451776	0.00124176025390625	0.897216796875
617	0.89599609375	21.738343945116	0.0012017822265625	0.8953857421875
618	0.8935546875	21.7627439450544	0.001163330078125	0.8929443359375
619	0.89111328125	21.7871439449927	0.0011260986328125	0.889892578125
620	0.888671875	21.8115439449311	0.00109100341796875	0.8880615234375
621	0.88623046875	21.8359439448695	0.00105682373046875	0.88531494140625
622	0.8837890625	21.8603439448079	0.0010235595703125	0.88287353515625
623	0.88134765625	21.8847439447463	0.00099151611328125	0.88043212890625
624	0.87890625	21.9091439446847	0.00096099853515625	0.87860107421875
625	0.87646484375	21.9335439446231	0.000931396484375	0.875244140625
626	0.8740234375	21.9579439445615	0.0009033203125	0.87371826171875
627	0.87158203125	21.9823439444999	0.00087554931640625	0.870361328125
628	0.869140625	22.0067439444383	0.00084930419921875	0.86883544921875
629	0.86669921875	22.0311439443767	0.00082427978515625	0.86578369140625
630	0.8642578125	22.0555439443151	0.000799560546875	0.863037109375
631	0.86181640625	22.0799439442535	0.0007763671875	0.8612060546875
632	0.859375	22.1043439441919	0.0007537841796875	0.85845947265625
633	0.85693359375	22.1287439441303	0.0007318115234375	0.85601806640625
634	0.8544921875	22.1531439440687	0.00071136474609375	0.8538818359375
635	0.85205078125	22.1775439440071	0.00069122314453125	0.85113525390625
636	0.849609375	22.2019439439455	0.00067169189453125	0.8489990234375
637	0.84716796875	22.2263439438839	0.00065338134765625	0.8465576171875
638	0.8447265625	22.2507439438223	0.0006353759765625	0.84381103515625
639	0.84228515625	22.2751439437607	0.00061859130859375	0.841064453125
640	0.83984375	22.2995439436991	0.00060211181640625	0.83892822265625
641	0.83740234375	22.3239439436375	0.00058624267578125	0.836181640625
642	0.8349609375	22.3483439435759	0.00057098388671875	0.83404541015625
643	0.83251953125	22.3727439435143	0.00055633544921875	0.831298828125
644	0.830078125	22.3971439434526	0.00054229736328125	0.828857421875
645	0.82763671875	22.421543943391	0.000528564453125	0.826416015625
646	0.8251953125	22.4459439433294	0.00051513671875	0.8245849609375
647	0.82275390625	22.4703439432678	0.00050262451171875	0.82244873046875
648	0.8203125	22.4947439432062	0.00048974609375	0.8197021484375
649	0.81787109375	22.5191439431446	0.00047796630859375	0.8172607421875
650	0.8154296875	22.543543943083	0.000466217041015625	0.814208984375
651	0.81298828125	22.5679439430214	0.000455291748046875	0.81207275390625
652	0.810546875	22.5923439429598	0.0004447021484375	0.809326171875
653	0.80810546875	22.6167439428982	0.000434417724609375	0.80718994140625
654	0.8056640625	22.6411439428366	0.0004244384765625	0.80474853515625
655	0.80322265625	22.665543942775	0.000414825439453125	0.80230712890625
656	0.80078125	22.6899439427134	0.000405609130859375	0.79986572265625
657	0.79833984375	22.7143439426518	0.00039642333984375	0.797119140625
658	0.7958984375	22.7387439425902	0.00038739013671875	0.79559326171875
659	0.79345703125	22.7631439425286	0.000378814697265625	0.79254150390625
660	0.791015625	22.787543942467	0.00037030029296875	0.79010009765625
661	0.78857421875	22.8119439424054	0.000362335205078125	0.78826904296875
662	0.7861328125	22.8363439423438	0.000354522705078125	0.784912109375
663	0.78369140625	22.8607439422822	0.000347198486328125	0.78277587890625
664	0.78125	22.8851439422206	0.000339599609375	0.780029296875
665	0.77880859375	22.909543942159	0.0003321533203125	0.77789306640625
666	0.7763671875	22.9339439420974	0.00032525634765625	0.775146484375
667	0.77392578125	22.9583439420358	0.00031854248046875	0.77362060546875
668	0.771484375	22.9827439419741	0.0003116455078125	0.77056884765625
669	0.76904296875	23.0071439419125	0.00030517578125	0.7684326171875
670	0.7666015625	23.0315439418509	0.00029852294921875	0.76629638671875
671	0.76416015625	23.0559439417893	0.00029241943359375	0.7635498046875
672	0.76171875	23.0803439417277	0.000286468505859375	0.76080322265625
673	0.75927734375	23.1047439416661	0.00028057861328125	0.75836181640625
674	0.7568359375	23.1291439416045	0.000274749755859375	0.755615234375
675	0.75439453125	23.1535439415429	0.000269012451171875	0.75408935546875
676	0.751953125	23.1779439414813	0.000263763427734375	0.750732421875
677	0.74951171875	23.2023439414197	0.000258056640625	0.749267578125
678	0.7470703125	23.2267439413581	0.000252838134765625	0.746856689453125
679	0.74462890625	23.2511439412965	0.000247528076171875	0.744384765625
680	0.7421875	23.2755439412349	0.000242919921875	0.741973876953125
681	0.73974609375	23.2999439411733	0.00023748779296875	0.739532470703125
682	0.7373046875	23.3243439411117	0.000232879638671875	0.737091064453125
683	0.73486328125	23.3487439410501	0.00022802734375	0.734619140625
684	0.732421875	23.3731439409885	0.0002236328125	0.732208251953125
685	0.72998046875	23.3975439409269	0.000219024658203125	0.729736328125
686	0.7275390625	23.4219439408653	0.000214599609375	0.727264404296875
687	0.72509765625	23.4463439408037	0.00021044921875	0.724884033203125
688	0.72265625	23.4707439407421	0.000206024169921875	0.722381591796875
689	0.72021484375	23.4951439406805	0.000201873779296875	0.720001220703125
690	0.7177734375	23.5195439406189	0.00019775390625	0.717559814453125
691	0.71533203125	23.5439439405573	0.000193603515625	0.715087890625
692	0.712890625	23.5683439404957	0.000189910888671875	0.712646484375
693	0.71044921875	23.592743940434	0.00018597412109375	0.710235595703125
694	0.7080078125	23.6171439403724	0.000182098388671875	0.70782470703125
695	0.70556640625	23.6415439403108	0.000178466796875	0.705322265625
696	0.703125	23.6659439402492	0.000174713134765625	0.702911376953125
697	0.70068359375	23.6903439401876	0.00017120361328125	0.7005615234375
698	0.6982421875	23.714743940126	0.00016754150390625	0.698028564453125
699	0.69580078125	23.7391439400644	0.0001641845703125	0.695587158203125
700	0.693359375	23.7635439400028	0.000160552978515625	0.6932373046875
701	0.69091796875	23.7879439399412	0.000157501220703125	0.6907958984375
702	0.6884765625	23.8123439398796	0.000154144287109375	0.68829345703125
703	0.68603515625	23.836743939818	0.0001510009765625	0.6859130859375
704	0.68359375	23.8611439397564	0.000147979736328125	0.683380126953125
705	0.68115234375	23.8855439396948	0.000144866943359375	0.680999755859375
706	0.6787109375	23.9099439396332	0.0001419677734375	0.6785888671875
707	0.67626953125	23.9343439395716	0.0001390380859375	0.6761474609375
708	0.673828125	23.95874393951	0.00013616943359375	0.673675537109375
709	0.67138671875	23.9831439394484	0.000133331298828125	0.6712646484375
710	0.6689453125	24.0075439393868	0.000130584716796875	0.668792724609375
711	0.66650390625	24.0319439393252	0.00012774658203125	0.666351318359375
712	0.6640625	24.0563439392636	0.000125030517578125	0.663909912109375
713	0.66162109375	24.080743939202	0.00012255859375	0.6614990234375
714	0.6591796875	24.1051439391404	0.000119964599609375	0.65899658203125
715	0.65673828125	24.1295439390788	0.00011737060546875	0.656585693359375
716	0.654296875	24.1539439390172	0.000115142822265625	0.6541748046875
717	0.65185546875	24.1783439389555	0.000112457275390625	0.651763916015625
718	0.6494140625	24.2027439388939	0.000110321044921875	0.6492919921875
719	0.64697265625	24.2271439388323	0.000107940673828125	0.6468505859375
720	0.64453125	24.2515439387707	0.000105621337890625	0.6444091796875
721	0.64208984375	24.2759439387091	0.00010333251953125	0.6419677734375
722	0.6396484375	24.3003439386475	0.000101287841796875	0.6395263671875
723	0.63720703125	24.3247439385859	9.918212890625E-05	0.637054443359375
724	0.634765625	24.3491439385243	9.710693359375E-05	0.634674072265625
725	0.63232421875	24.3735439384627	9.4970703125E-05	0.6322021484375
726	0.6298828125	24.3979439384011	9.3017578125E-05	0.629852294921875
727	0.62744140625	24.4223439383395	9.1339111328125E-05	0.6273193359375
728	0.625	24.4467439382779	8.92333984375E-05	0.624725341796875
729	0.62255859375	24.4711439382163	8.734130859375E-05	0.622344970703125
730	0.6201171875	24.4955439381547	8.538818359375E-05	0.619873046875
731	0.61767578125	24.5199439380931	8.355712890625E-05	0.617462158203125
732	0.615234375	24.5443439380315	8.19091796875E-05	0.61505126953125
733	0.61279296875	24.5687439379699	8.0322265625E-05	0.612548828125
734	0.6103515625	24.5931439379083	7.8643798828125E-05	0.610107421875
735	0.60791015625	24.6175439378467	7.708740234375E-05	0.607666015625
736	0.60546875	24.6419439377851	7.5347900390625E-05	0.60528564453125
737	0.60302734375	24.6663439377235	7.3760986328125E-05	0.602874755859375
738	0.6005859375	24.6907439376619	7.2174072265625E-05	0.600433349609375
739	0.59814453125	24.7151439376003	7.061767578125E-05	0.597991943359375
740	0.595703125	24.7395439375387	6.9305419921875E-05	0.595489501953125
741	0.59326171875	24.7639439374771	6.793212890625E-05	0.5931396484375
742	0.5908203125	24.7883439374154	6.6253662109375E-05	0.590606689453125
743	0.58837890625	24.8127439373538	6.4788818359375E-05	0.58819580078125
744	0.5859375	24.8371439372922	6.3568115234375E-05	0.585693359375
745	0.58349609375	24.8615439372306	6.219482421875E-05	0.583343505859375
746	0.5810546875	24.885943937169	6.1004638671875E-05	0.580810546875
747	0.57861328125	24.9103439371074	5.9539794921875E-05	0.578399658203125
748	0.576171875	24.9347439370458	5.828857421875E-05	0.576019287109375
749	0.57373046875	24.9591439369842	5.7220458984375E-05	0.573577880859375
750	0.5712890625	24.9835439369226	5.5938720703125E-05	0.57110595703125
751	0.56884765625	25.007943936861	5.4840087890625E-05	0.56866455078125
752	0.56640625	25.0323439367994	5.3741455078125E-05	0.566192626953125
753	0.56396484375	25.0567439367378	5.2581787109375E-05	0.56378173828125
754	0.5615234375	25.0811439366762	5.1513671875E-05	0.56134033203125
755	0.55908203125	25.1055439366146	5.0384521484375E-05	0.558868408203125
756	0.556640625	25.129943936553	4.93988037109375E-05	0.55645751953125
757	0.55419921875	25.1543439364914	4.84344482421875E-05	0.5540771484375
758	0.5517578125	25.1787439364298	4.7503662109375E-05	0.551605224609375
759	0.54931640625	25.2031439363682	4.656982421875E-05	0.5491943359375
760	0.546875	25.2275439363066	4.561767578125E-05	0.5467529296875
761	0.54443359375	25.251943936245	4.46685791015625E-05	0.544281005859375
762	0.5419921875	25.2763439361834	4.36279296875E-05	0.5418701171875
763	0.53955078125	25.3007439361218	4.28619384765625E-05	0.5394287109375
764	0.537109375	25.3251439360602	4.2034912109375E-05	0.536956787109375
765	0.53466796875	25.3495439359986	4.11102294921875E-05	0.53448486328125
766	0.5322265625	25.3739439359369	4.02099609375E-05	0.532135009765625
767	0.52978515625	25.3983439358753	3.95751953125E-05	0.5296630859375
768	0.52734375	25.4227439358137	3.88397216796875E-05	0.527252197265625
769	0.52490234375	25.4471439357521	3.8250732421875E-05	0.5247802734375
770	0.5224609375	25.4715439356905	3.7591552734375E-05	0.522369384765625
771	0.52001953125	25.4959439356289	3.69049072265625E-05	0.5198974609375
772	0.517578125	25.5203439355673	3.5986328125E-05	0.5174560546875
773	0.51513671875	25.5447439355057	3.5260009765625E-05	0.515045166015625
774	0.5126953125	25.5691439354441	3.447265625E-05	0.512603759765625
775	0.51025390625	25.5935439353825	3.38897705078125E-05	0.510162353515625
776	0.5078125	25.6179439353209	3.33740234375E-05	0.50762939453125
777	0.50537109375	25.6423439352593	3.26934814453125E-05	0.5052490234375
778	0.5029296875	25.6667439351977	3.214111328125E-05	0.502838134765625
779	0.50048828125	25.6911439351361	3.14178466796875E-05	0.5003662109375
780	0.498046875	25.7155439350745	3.0865478515625E-05	0.49786376953125
781	0.49560546875	25.7399439350129	3.04046630859375E-05	0.495513916015625
782	0.4931640625	25.7643439349513	2.98248291015625E-05	0.4930419921875
783	0.49072265625	25.7887439348897	2.92083740234375E-05	0.49053955078125
784	0.48828125	25.8131439348281	2.88482666015625E-05	0.48822021484375
785	0.48583984375	25.8375439347665	2.85919189453125E-05	0.4857177734375
786	0.4833984375	25.8619439347049	2.81097412109375E-05	0.483306884765625
787	0.48095703125	25.8863439346433	2.76092529296875E-05	0.4808349609375
788	0.478515625	25.9107439345817	2.7178955078125E-05	0.478424072265625
789	0.47607421875	25.9351439345201	2.6776123046875E-05	0.47601318359375
790	0.4736328125	25.9595439344585	2.6318359375E-05	0.473602294921875
791	0.47119140625	25.9839439343968	2.587890625E-05	0.471099853515625
792	0.46875	26.0083439343352	2.55523681640625E-05	0.4686279296875
793	0.46630859375	26.0327439342736	2.5079345703125E-05	0.4661865234375
794	0.4638671875	26.057143934212	2.46368408203125E-05	0.4637451171875
795	0.46142578125	26.0815439341504	2.4176025390625E-05	0.46136474609375
796	0.458984375	26.1059439340888	2.3822021484375E-05	0.458892822265625
797	0.45654296875	26.1303439340272	2.34771728515625E-05	0.45654296875
798	0.4541015625	26.1547439339656	2.30682373046875E-05	0.45404052734375
799	0.45166015625	26.179143933904	2.2802734375E-05	0.451568603515625
800	0.44921875	26.2035439338424	2.2454833984375E-05	0.449188232421875
801	0.44677734375	26.2279439337808	2.20672607421875E-05	0.446746826171875
802	0.4443359375	26.2523439337192	2.1771240234375E-05	0.4442138671875
803	0.44189453125	26.2767439336576	2.13897705078125E-05	0.441864013671875
804	0.439453125	26.301143933596	2.10906982421875E-05	0.43939208984375
805	0.43701171875	26.3255439335344	2.07275390625E-05	0.436981201171875
806	0.4345703125	26.3499439334728	2.03887939453125E-05	0.43450927734375
807	0.43212890625	26.3743439334112	2.02362060546875E-05	0.43206787109375
808	0.4296875	26.3987439333496	1.96380615234375E-05	0.429656982421875
809	0.42724609375	26.423143933288	1.947021484375E-05	0.427215576171875
810	0.4248046875	26.4475439332264	1.90582275390625E-05	0.424713134765625
811	0.42236328125	26.4719439331648	1.88873291015625E-05	0.422332763671875
812	0.419921875	26.4963439331032	1.85455322265625E-05	0.419891357421875
813	0.41748046875	26.5207439330416	1.83837890625E-05	0.41741943359375
814	0.4150390625	26.54514393298	1.810302734375E-05	0.4150390625
815	0.41259765625	26.5695439329184	1.7822265625E-05	0.412567138671875
816	0.41015625	26.5939439328567	1.76788330078125E-05	0.41015625
817	0.40771484375	26.6183439327951	1.74591064453125E-05	0.40765380859375
818	0.4052734375	26.6427439327335	1.7138671875E-05	0.4052734375
819	0.40283203125	26.6671439326719	1.69952392578125E-05	0.40277099609375
820	0.400390625	26.6915439326103	1.669921875E-05	0.400390625
821	0.39794921875	26.7159439325487	1.639404296875E-05	0.397857666015625
822	0.3955078125	26.7403439324871	1.619873046875E-05	0.39544677734375
823	0.39306640625	26.7647439324255	1.5985107421875E-05	0.393035888671875
824	0.390625	26.7891439323639	1.59332275390625E-05	0.390625
825	0.38818359375	26.8135439323023	1.551513671875E-05	0.38812255859375
826	0.3857421875	26.8379439322407	1.53900146484375E-05	0.3857421875
827	0.38330078125	26.8623439321791	1.51519775390625E-05	0.383270263671875
828	0.380859375	26.8867439321175	1.50634765625E-05	0.380828857421875
829	0.37841796875	26.9111439320559	1.4862060546875E-05	0.37835693359375
830	0.3759765625	26.9355439319943	1.48193359375E-05	0.3759765625
831	0.37353515625	26.9599439319327	1.44927978515625E-05	0.373504638671875
832	0.37109375	26.9843439318711	1.4471435546875E-05	0.37109375
833	0.36865234375	27.0087439318095	1.4208984375E-05	0.368560791015625
834	0.3662109375	27.0331439317479	1.4044189453125E-05	0.366119384765625
835	0.36376953125	27.0575439316863	1.38671875E-05	0.36376953125
836	0.361328125	27.0819439316247	1.376953125E-05	0.36126708984375
837	0.35888671875	27.1063439315631	1.35345458984375E-05	0.358917236328125
838	0.3564453125	27.1307439315015	1.35162353515625E-05	0.356414794921875
839	0.35400390625	27.1551439314399	1.32720947265625E-05	0.35400390625
840	0.3515625	27.1795439313782	1.30859375E-05	0.3515625
841	0.34912109375	27.2039439313166	1.29302978515625E-05	0.349090576171875
842	0.3466796875	27.228343931255	1.26983642578125E-05	0.346649169921875
843	0.34423828125	27.2527439311934	1.258544921875E-05	0.344146728515625
844	0.341796875	27.2771439311318	1.25335693359375E-05	0.341766357421875
845	0.33935546875	27.3015439310702	1.224365234375E-05	0.339324951171875
846	0.3369140625	27.3259439310086	1.21429443359375E-05	0.3369140625
847	0.33447265625	27.350343930947	1.20086669921875E-05	0.33447265625
848	0.33203125	27.3747439308854	1.18682861328125E-05	0.332061767578125
849	0.32958984375	27.3991439308238	1.16455078125E-05	0.329559326171875
850	0.3271484375	27.4235439307622	1.1590576171875E-05	0.3271484375
851	0.32470703125	27.4479439307006	1.15325927734375E-05	0.32470703125
852	0.322265625	27.472343930639	1.14349365234375E-05	0.322296142578125
853	0.31982421875	27.4967439305774	1.12274169921875E-05	0.31976318359375
854	0.3173828125	27.5211439305158	1.11724853515625E-05	0.3173828125
855	0.31494140625	27.5455439304542	1.10748291015625E-05	0.31494140625
856	0.3125	27.5699439303926	1.09222412109375E-05	0.312530517578125
857	0.31005859375	27.594343930331	1.07757568359375E-05	0.31005859375
858	0.3076171875	27.6187439302694	1.06903076171875E-05	0.30755615234375
859	0.30517578125	27.6431439302078	1.0577392578125E-05	0.30517578125
860	0.302734375	27.6675439301462	1.0443115234375E-05	0.302764892578125
861	0.30029296875	27.6919439300846	1.03057861328125E-05	0.300262451171875
862	0.2978515625	27.716343930023	1.02142333984375E-05	0.29779052734375
863	0.29541015625	27.7407439299614	1.01318359375E-05	0.29541015625
864	0.29296875	27.7651439298998	9.9395751953125E-06	0.292938232421875
865	0.29052734375	27.7895439298381	9.8297119140625E-06	0.290496826171875
866	0.2880859375	27.8139439297765	9.722900390625E-06	0.288055419921875
867	0.28564453125	27.8383439297149	9.50927734375E-06	0.285675048828125
868	0.283203125	27.8627439296533	9.5306396484375E-06	0.283233642578125
869	0.28076171875	27.8871439295917	9.503173828125E-06	0.2806396484375
870	0.2783203125	27.9115439295301	9.33837890625E-06	0.2781982421875
871	0.27587890625	27.9359439294685	9.26513671875E-06	0.275726318359375
872	0.2734375	27.9603439294069	9.173583984375E-06	0.2733154296875
873	0.27099609375	27.9847439293453	9.06982421875E-06	0.270843505859375
874	0.2685546875	28.0091439292837	8.941650390625E-06	0.26837158203125
875	0.26611328125	28.0335439292221	8.8287353515625E-06	0.2659912109375
876	0.263671875	28.0579439291605	8.6669921875E-06	0.263519287109375
877	0.26123046875	28.0823439290989	8.648681640625E-06	0.261016845703125
878	0.2587890625	28.1067439290373	8.59375E-06	0.2586669921875
879	0.25634765625	28.1311439289757	8.5296630859375E-06	0.2562255859375
880	0.25390625	28.1555439289141	8.306884765625E-06	0.2537841796875
881	0.25146484375	28.1799439288525	8.251953125E-06	0.25128173828125
882	0.2490234375	28.2043439287909	8.1390380859375E-06	0.2489013671875
883	0.24658203125	28.2287439287293	8.001708984375E-06	0.246368408203125
884	0.244140625	28.2531439286677	7.9315185546875E-06	0.243988037109375
885	0.24169921875	28.2775439286061	7.7911376953125E-06	0.24151611328125
886	0.2392578125	28.3019439285445	7.708740234375E-06	0.2391357421875
887	0.23681640625	28.3263439284829	7.6263427734375E-06	0.2366943359375
888	0.234375	28.3507439284213	7.55615234375E-06	0.2342529296875
889	0.23193359375	28.3751439283596	7.452392578125E-06	0.231781005859375
890	0.2294921875	28.399543928298	7.3455810546875E-06	0.229400634765625
891	0.22705078125	28.4239439282364	7.28759765625E-06	0.2269287109375
892	0.224609375	28.4483439281748	7.14111328125E-06	0.224517822265625
893	0.22216796875	28.4727439281132	7.061767578125E-06	0.2220458984375
894	0.2197265625	28.4971439280516	6.9915771484375E-06	0.219635009765625
895	0.21728515625	28.52154392799	6.8603515625E-06	0.2171630859375
896	0.21484375	28.5459439279284	6.8206787109375E-06	0.2147216796875
897	0.21240234375	28.5703439278668	6.75048828125E-06	0.2122802734375
898	0.2099609375	28.5947439278052	6.5673828125E-06	0.209869384765625
899	0.20751953125	28.6191439277436	6.3720703125E-06	0.207427978515625
900	0.205078125	28.643543927682	6.3079833984375E-06	0.2049560546875
901	0.20263671875	28.6679439276204	6.2591552734375E-06	0.202606201171875
902	0.2001953125	28.6923439275588	6.15234375E-06	0.2000732421875
903	0.19775390625	28.7167439274972	6.085205078125E-06	0.1976318359375
904	0.1953125	28.7411439274356	6.036376953125E-06	0.195220947265625
905	0.19287109375	28.765543927374	5.9295654296875E-06	0.192779541015625
906	0.1904296875	28.7899439273124	5.9051513671875E-06	0.190338134765625
907	0.18798828125	28.8143439272508	5.865478515625E-06	0.18792724609375
908	0.185546875	28.8387439271892	5.6671142578125E-06	0.1854248046875
909	0.18310546875	28.8631439271276	5.55419921875E-06	0.182952880859375
910	0.1806640625	28.887543927066	5.5084228515625E-06	0.180633544921875
911	0.17822265625	28.9119439270044	5.419921875E-06	0.1781005859375
912	0.17578125	28.9363439269428	5.3375244140625E-06	0.17572021484375
913	0.17333984375	28.9607439268812	5.230712890625E-06	0.173248291015625
914	0.1708984375	28.9851439268195	5.1422119140625E-06	0.1707763671875
915	0.16845703125	29.0095439267579	5.108642578125E-06	0.1683349609375
916	0.166015625	29.0339439266963	5.0048828125E-06	0.16595458984375
917	0.16357421875	29.0583439266347	4.88494873046875E-06	0.163482666015625
918	0.1611328125	29.0827439265731	4.84466552734375E-06	0.161102294921875
919	0.15869140625	29.1071439265115	4.77508544921875E-06	0.158660888671875
920	0.15625	29.1315439264499	4.7357177734375E-06	0.15618896484375
921	0.15380859375	29.1559439263883	4.60968017578125E-06	0.15380859375
922	0.1513671875	29.1803439263267	4.522705078125E-06	0.151336669921875
923	0.14892578125	29.2047439262651	4.522705078125E-06	0.148895263671875
924	0.146484375	29.2291439262035	4.40155029296875E-06	0.146453857421875
925	0.14404296875	29.2535439261419	4.31884765625E-06	0.14404296875
926	0.1416015625	29.2779439260803	4.1778564453125E-06	0.14154052734375
927	0.13916015625	29.3023439260187	4.083251953125E-06	0.139129638671875
928	0.13671875	29.3267439259571	4.0472412109375E-06	0.13671875
929	0.13427734375	29.3511439258955	3.97064208984375E-06	0.134246826171875
930	0.1318359375	29.3755439258339	3.89801025390625E-06	0.1318359375
931	0.12939453125	29.3999439257723	3.78692626953125E-06	0.12939453125
932	0.126953125	29.4243439257107	3.71368408203125E-06	0.126922607421875
933	0.12451171875	29.4487439256491	3.64471435546875E-06	0.12457275390625
934	0.1220703125	29.4731439255875	3.6065673828125E-06	0.122039794921875
935	0.11962890625	29.4975439255259	3.52752685546875E-06	0.119659423828125
936	0.1171875	29.5219439254643	3.44573974609375E-06	0.1171875
937	0.11474609375	29.5463439254027	3.3734130859375E-06	0.11468505859375
938	0.1123046875	29.570743925341	3.2757568359375E-06	0.1123046875
939	0.10986328125	29.5951439252794	3.1854248046875E-06	0.109832763671875
940	0.107421875	29.6195439252178	3.118896484375E-06	0.107421875
941	0.10498046875	29.6439439251562	3.0303955078125E-06	0.10498046875
942	0.1025390625	29.6683439250946	2.98553466796875E-06	0.102569580078125
943	0.10009765625	29.692743925033	2.90985107421875E-06	0.100067138671875
944	0.09765625	29.7171439249714	2.8033447265625E-06	0.09765625
945	0.09521484375	29.7415439249098	2.7099609375E-06	0.095184326171875
946	0.0927734375	29.7659439248482	2.65228271484375E-06	0.0927734375
947	0.09033203125	29.7903439247866	2.59307861328125E-06	0.090301513671875
948	0.087890625	29.814743924725	2.5274658203125E-06	0.087921142578125
949	0.08544921875	29.8391439246634	2.4285888671875E-06	0.08551025390625
950	0.0830078125	29.8635439246018	2.36114501953125E-06	0.083038330078125
951	0.08056640625	29.8879439245402	2.31842041015625E-06	0.08056640625
952	0.078125	29.9123439244786	2.25311279296875E-06	0.078125
953	0.07568359375	29.936743924417	2.1746826171875E-06	0.07568359375
954	0.0732421875	29.9611439243554	2.0623779296875E-06	0.07318115234375
955	0.07080078125	29.9855439242938	2.0074462890625E-06	0.070831298828125
956	0.068359375	30.0099439242322	1.91619873046875E-06	0.068389892578125
957	0.06591796875	30.0343439241706	1.851806640625E-06	0.06591796875
958	0.0634765625	30.058743924109	1.7681884765625E-06	0.063446044921875
959	0.06103515625	30.0831439240474	1.68914794921875E-06	0.06109619140625
960	0.05859375	30.1075439239858	1.6546630859375E-06	0.05865478515625
961	0.05615234375	30.1319439239242	1.575927734375E-06	0.056182861328125
962	0.0537109375	30.1563439238626	1.497802734375E-06	0.053741455078125
963	0.05126953125	30.1807439238009	1.407470703125E-06	0.05133056640625
964	0.048828125	30.2051439237393	1.35955810546875E-06	0.04898681640625
965	0.04638671875	30.2295439236777	1.30584716796875E-06	0.04656982421875
966	0.0439453125	30.2539439236161	1.23199462890625E-06	0.044097900390625
967	0.04150390625	30.2783439235545	1.14654541015625E-06	0.0416595458984375
968	0.0390625	30.3027439234929	1.0760498046875E-06	0.0392059326171875
969	0.03662109375	30.3271439234313	1.01593017578125E-06	0.0367645263671875
970	0.0341796875	30.3515439233697	9.5458984375E-07	0.0343109130859375
971	0.03173828125	30.3759439233081	8.8165283203125E-07	0.031884765625
972	0.029296875	30.4003439232465	8.0108642578125E-07	0.0294464111328125
973	0.02685546875	30.4247439231849	7.4676513671875E-07	0.027020263671875
974	0.0244140625	30.4491439231233	6.8450927734375E-07	0.024591064453125
975	0.02197265625	30.4735439230617	6.16455078125E-07	0.0221038818359375
976	0.01953125	30.4979439230001	5.3466796875E-07	0.019671630859375
977	0.01708984375	30.5223439229385	4.62493896484375E-07	0.0172210693359375
978	0.0146484375	30.5467439228769	4.04388427734375E-07	0.014776611328125
979	0.01220703125	30.5711439228153	3.460693359375E-07	0.0122955322265625
980	0.009765625	30.5955439227537	2.77099609375E-07	0.00991210937500001
981	0.00732421875	30.6199439226921	1.91131591796875E-07	0.00745544433593751
982	0.0048828125	30.6443439226305	1.25335693359375E-07	0.0050323486328125
983	0.00244140625	30.6687439225689	7.18994140625E-08	0.0026092529296875
984	0	30.6931439225073	5.9783935546875E-09	0.000143432617187494
985	0.00244140625	30.7175439224457	6.3262939453125E-08	0.0025787353515625
986	0.0048828125	30.7419439223841	1.23138427734375E-07	0.0050201416015625
