Index	Potential applied (V)	Time (s)	WE(1).Current (A)	WE(1).Potential (V)
1	0.00244140625	294.513233256426	-4.6307373046875E-06	0.0025909423828125
2	0.0048828125	294.537633256364	-4.5916748046875E-06	0.0050323486328125
3	0.00732421875	294.562033256302	-4.4439697265625E-06	0.00748596191406251
4	0.009765625	294.586433256241	-4.47418212890625E-06	0.009906005859375
5	0.01220703125	294.610833256179	-4.29046630859375E-06	0.0123687744140625
6	0.0146484375	294.635233256118	-4.3157958984375E-06	0.0147979736328125
7	0.01708984375	294.659633256056	-4.14825439453125E-06	0.017230224609375
8	0.01953125	294.684033255994	-4.1180419921875E-06	0.0196868896484375
9	0.02197265625	294.708433255933	-4.044189453125E-06	0.0221221923828125
10	0.0244140625	294.732833255871	-3.95721435546875E-06	0.0245452880859375
11	0.02685546875	294.75723325581	-3.92059326171875E-06	0.0270111083984375
12	0.029296875	294.781633255748	-3.76678466796875E-06	0.0294158935546875
13	0.03173828125	294.806033255686	-3.7969970703125E-06	0.031878662109375
14	0.0341796875	294.830433255625	-3.59893798828125E-06	0.034332275390625
15	0.03662109375	294.854833255563	-3.61236572265625E-06	0.0367462158203125
16	0.0390625	294.879233255502	-3.46405029296875E-06	0.0392059326171875
17	0.04150390625	294.90363325544	-3.42926025390625E-06	0.0416656494140625
18	0.0439453125	294.928033255378	-3.34259033203125E-06	0.0440826416015625
19	0.04638671875	294.952433255317	-3.2720947265625E-06	0.0465301513671875
20	0.048828125	294.976833255255	-3.24005126953125E-06	0.0489776611328125
21	0.05126953125	295.001233255193	-3.06915283203125E-06	0.051422119140625
22	0.0537109375	295.025633255132	-3.0877685546875E-06	0.0538330078125
23	0.05615234375	295.05003325507	-2.92022705078125E-06	0.056243896484375
24	0.05859375	295.074433255009	-2.9193115234375E-06	0.058685302734375
25	0.06103515625	295.098833254947	-2.7825927734375E-06	0.06109619140625
26	0.0634765625	295.123233254885	-2.72308349609375E-06	0.063568115234375
27	0.06591796875	295.147633254824	-2.6739501953125E-06	0.06597900390625
28	0.068359375	295.172033254762	-2.54547119140625E-06	0.068450927734375
29	0.07080078125	295.196433254701	-2.51007080078125E-06	0.070831298828125
30	0.0732421875	295.220833254639	-2.36541748046875E-06	0.07330322265625
31	0.07568359375	295.245233254577	-2.3968505859375E-06	0.0758056640625
32	0.078125	295.269633254516	-2.21038818359375E-06	0.07818603515625
33	0.08056640625	295.294033254454	-2.19207763671875E-06	0.080657958984375
34	0.0830078125	295.318433254393	-2.030029296875E-06	0.083099365234375
35	0.08544921875	295.342833254331	-1.983642578125E-06	0.085540771484375
36	0.087890625	295.367233254269	-1.9140625E-06	0.087921142578125
37	0.09033203125	295.391633254208	-1.800537109375E-06	0.09039306640625
38	0.0927734375	295.416033254146	-1.756591796875E-06	0.09283447265625
39	0.09521484375	295.440433254085	-1.5753173828125E-06	0.09521484375
40	0.09765625	295.464833254023	-1.60491943359375E-06	0.09771728515625
41	0.10009765625	295.489233253961	-1.42791748046875E-06	0.10015869140625
42	0.1025390625	295.5136332539	-1.45965576171875E-06	0.102630615234375
43	0.10498046875	295.538033253838	-1.27838134765625E-06	0.1051025390625
44	0.107421875	295.562433253777	-1.20147705078125E-06	0.107574462890625
45	0.10986328125	295.586833253715	-1.136474609375E-06	0.109954833984375
46	0.1123046875	295.611233253653	-1.00372314453125E-06	0.1124267578125
47	0.11474609375	295.635633253592	-9.85107421875E-07	0.11474609375
48	0.1171875	295.66003325353	-8.245849609375E-07	0.11724853515625
49	0.11962890625	295.684433253469	-7.684326171875E-07	0.1197509765625
50	0.1220703125	295.708833253407	-5.6488037109375E-07	0.122100830078125
51	0.12451171875	295.733233253345	-5.6304931640625E-07	0.124603271484375
52	0.126953125	295.757633253284	-3.6895751953125E-07	0.127044677734375
53	0.12939453125	295.782033253222	-3.71307373046875E-07	0.12945556640625
54	0.1318359375	295.806433253161	-3.5504150390625E-07	0.131927490234375
55	0.13427734375	295.830833253099	-1.63726806640625E-07	0.13433837890625
56	0.13671875	295.855233253037	-8.5205078125E-08	0.136749267578125
57	0.13916015625	295.879633252976	1.05560302734375E-07	0.13922119140625
58	0.1416015625	295.904033252914	7.928466796875E-08	0.141632080078125
59	0.14404296875	295.928433252853	1.45050048828125E-07	0.144073486328125
60	0.146484375	295.952833252791	1.796875E-07	0.146453857421875
61	0.14892578125	295.977233252729	3.71490478515625E-07	0.148895263671875
62	0.1513671875	296.001633252668	3.5980224609375E-07	0.1513671875
63	0.15380859375	296.026033252606	4.28466796875E-07	0.153778076171875
64	0.15625	296.050433252545	6.5582275390625E-07	0.15618896484375
65	0.15869140625	296.074833252483	6.4300537109375E-07	0.1585693359375
66	0.1611328125	296.099233252421	8.1146240234375E-07	0.1610107421875
67	0.16357421875	296.12363325236	8.19091796875E-07	0.1634521484375
68	0.166015625	296.148033252298	9.637451171875E-07	0.16595458984375
69	0.16845703125	296.172433252236	1.04827880859375E-06	0.1683349609375
70	0.1708984375	296.196833252175	1.24359130859375E-06	0.1707763671875
71	0.17333984375	296.221233252113	1.34429931640625E-06	0.17315673828125
72	0.17578125	296.245633252052	1.28936767578125E-06	0.17559814453125
73	0.17822265625	296.27003325199	1.51885986328125E-06	0.17803955078125
74	0.1806640625	296.294433251928	1.5576171875E-06	0.180450439453125
75	0.18310546875	296.318833251867	1.71630859375E-06	0.182891845703125
76	0.185546875	296.343233251805	1.78619384765625E-06	0.1851806640625
77	0.18798828125	296.367633251744	1.9549560546875E-06	0.187713623046875
78	0.1904296875	296.392033251682	1.925048828125E-06	0.1900634765625
79	0.19287109375	296.41643325162	2.11395263671875E-06	0.19256591796875
80	0.1953125	296.440833251559	2.205810546875E-06	0.194976806640625
81	0.19775390625	296.465233251497	2.25799560546875E-06	0.1973876953125
82	0.2001953125	296.489633251436	2.3748779296875E-06	0.1998291015625
83	0.20263671875	296.514033251374	2.4078369140625E-06	0.20220947265625
84	0.205078125	296.538433251312	2.5836181640625E-06	0.20458984375
85	0.20751953125	296.562833251251	2.69195556640625E-06	0.20703125
86	0.2099609375	296.587233251189	2.78350830078125E-06	0.20947265625
87	0.21240234375	296.611633251128	2.86956787109375E-06	0.2117919921875
88	0.21484375	296.636033251066	3.03741455078125E-06	0.21435546875
89	0.21728515625	296.660433251004	3.11492919921875E-06	0.217193603515625
90	0.2197265625	296.684833250943	3.14453125E-06	0.2197265625
91	0.22216796875	296.709233250881	3.30413818359375E-06	0.22210693359375
92	0.224609375	296.73363325082	3.3660888671875E-06	0.224609375
93	0.22705078125	296.758033250758	3.53057861328125E-06	0.2269287109375
94	0.2294921875	296.782433250696	3.58062744140625E-06	0.22943115234375
95	0.23193359375	296.806833250635	3.74267578125E-06	0.231903076171875
96	0.234375	296.831233250573	3.753662109375E-06	0.234375
97	0.23681640625	296.855633250512	3.9544677734375E-06	0.236724853515625
98	0.2392578125	296.88003325045	4.06890869140625E-06	0.23919677734375
99	0.24169921875	296.904433250388	4.06585693359375E-06	0.2415771484375
100	0.244140625	296.928833250327	4.29931640625E-06	0.244049072265625
101	0.24658203125	296.953233250265	4.37591552734375E-06	0.246490478515625
102	0.2490234375	296.977633250204	4.58160400390625E-06	0.24896240234375
103	0.25146484375	297.002033250142	4.53582763671875E-06	0.2513427734375
104	0.25390625	297.02643325008	4.6697998046875E-06	0.253814697265625
105	0.25634765625	297.050833250019	4.755859375E-06	0.25628662109375
106	0.2587890625	297.075233249957	4.9652099609375E-06	0.25872802734375
107	0.26123046875	297.099633249896	5.1605224609375E-06	0.2611083984375
108	0.263671875	297.124033249834	5.17578125E-06	0.263519287109375
109	0.26611328125	297.148433249772	5.267333984375E-06	0.2659912109375
110	0.2685546875	297.172833249711	5.267333984375E-06	0.2684326171875
111	0.27099609375	297.197233249649	5.4718017578125E-06	0.2708740234375
112	0.2734375	297.221633249588	5.487060546875E-06	0.273345947265625
113	0.27587890625	297.246033249526	5.743408203125E-06	0.275787353515625
114	0.2783203125	297.270433249464	5.7861328125E-06	0.278167724609375
115	0.28076171875	297.294833249403	5.908203125E-06	0.280609130859375
116	0.283203125	297.319233249341	6.2042236328125E-06	0.2830810546875
117	0.28564453125	297.343633249279	6.2225341796875E-06	0.285491943359375
118	0.2880859375	297.368033249218	6.4056396484375E-06	0.2879638671875
119	0.29052734375	297.392433249156	6.427001953125E-06	0.290374755859375
120	0.29296875	297.416833249095	6.646728515625E-06	0.292877197265625
121	0.29541015625	297.441233249033	6.6253662109375E-06	0.2952880859375
122	0.2978515625	297.465633248971	6.8359375E-06	0.297760009765625
123	0.30029296875	297.49003324891	6.915283203125E-06	0.3001708984375
124	0.302734375	297.514433248848	7.037353515625E-06	0.302581787109375
125	0.30517578125	297.538833248787	7.1990966796875E-06	0.305023193359375
126	0.3076171875	297.563233248725	7.3699951171875E-06	0.3074951171875
127	0.31005859375	297.587633248663	7.6324462890625E-06	0.3099365234375
128	0.3125	297.612033248602	7.5469970703125E-06	0.312347412109375
129	0.31494140625	297.63643324854	7.830810546875E-06	0.31488037109375
130	0.3173828125	297.660833248479	7.9376220703125E-06	0.317230224609375
131	0.31982421875	297.685233248417	8.2183837890625E-06	0.319732666015625
132	0.322265625	297.709633248355	8.2763671875E-06	0.32208251953125
133	0.32470703125	297.734033248294	8.30078125E-06	0.32452392578125
134	0.3271484375	297.758433248232	8.50830078125E-06	0.3270263671875
135	0.32958984375	297.782833248171	8.6669921875E-06	0.32940673828125
136	0.33203125	297.807233248109	8.9202880859375E-06	0.33184814453125
137	0.33447265625	297.831633248047	9.027099609375E-06	0.334381103515625
138	0.3369140625	297.856033247986	9.3109130859375E-06	0.3367919921875
139	0.33935546875	297.880433247924	9.43603515625E-06	0.339202880859375
140	0.341796875	297.904833247863	9.5458984375E-06	0.341583251953125
141	0.34423828125	297.929233247801	9.75341796875E-06	0.34405517578125
142	0.3466796875	297.953633247739	9.8480224609375E-06	0.3465576171875
143	0.34912109375	297.978033247678	1.016845703125E-05	0.348968505859375
144	0.3515625	298.002433247616	1.0113525390625E-05	0.3514404296875
145	0.35400390625	298.026833247555	1.0479736328125E-05	0.3538818359375
146	0.3564453125	298.051233247493	1.06201171875E-05	0.356292724609375
147	0.35888671875	298.075633247431	1.08306884765625E-05	0.35870361328125
148	0.361328125	298.10003324737	1.097412109375E-05	0.3612060546875
149	0.36376953125	298.124433247308	1.12152099609375E-05	0.363555908203125
150	0.3662109375	298.148833247247	1.16302490234375E-05	0.366058349609375
151	0.36865234375	298.173233247185	1.1529541015625E-05	0.368499755859375
152	0.37109375	298.197633247123	1.18377685546875E-05	0.370849609375
153	0.37353515625	298.222033247062	1.197509765625E-05	0.37335205078125
154	0.3759765625	298.246433247	1.23626708984375E-05	0.375823974609375
155	0.37841796875	298.270833246939	1.2579345703125E-05	0.37823486328125
156	0.380859375	298.295233246877	1.28173828125E-05	0.380706787109375
157	0.38330078125	298.319633246815	1.30401611328125E-05	0.383056640625
158	0.3857421875	298.344033246754	1.32293701171875E-05	0.385528564453125
159	0.38818359375	298.368433246692	1.35894775390625E-05	0.387939453125
160	0.390625	298.392833246631	1.3848876953125E-05	0.390380859375
161	0.39306640625	298.417233246569	1.427001953125E-05	0.392822265625
162	0.3955078125	298.441633246507	1.43585205078125E-05	0.395294189453125
163	0.39794921875	298.466033246446	1.48101806640625E-05	0.397735595703125
164	0.400390625	298.490433246384	1.49871826171875E-05	0.40008544921875
165	0.40283203125	298.514833246322	1.52374267578125E-05	0.40252685546875
166	0.4052734375	298.539233246261	1.5484619140625E-05	0.40509033203125
167	0.40771484375	298.563633246199	1.57928466796875E-05	0.407379150390625
168	0.41015625	298.588033246138	1.60614013671875E-05	0.409881591796875
169	0.41259765625	298.612433246076	1.6290283203125E-05	0.412261962890625
170	0.4150390625	298.636833246014	1.6668701171875E-05	0.414764404296875
171	0.41748046875	298.661233245953	1.6796875E-05	0.417236328125
172	0.419921875	298.685633245891	1.72882080078125E-05	0.419586181640625
173	0.42236328125	298.71003324583	1.7755126953125E-05	0.42205810546875
174	0.4248046875	298.734433245768	1.81732177734375E-05	0.42449951171875
175	0.42724609375	298.758833245706	1.85455322265625E-05	0.4268798828125
176	0.4296875	298.783233245645	1.89117431640625E-05	0.4293212890625
177	0.43212890625	298.807633245583	1.94061279296875E-05	0.4317626953125
178	0.4345703125	298.832033245522	1.9598388671875E-05	0.4342041015625
179	0.43701171875	298.85643324546	2.0166015625E-05	0.436676025390625
180	0.439453125	298.880833245398	2.05078125E-05	0.43902587890625
181	0.44189453125	298.905233245337	2.11212158203125E-05	0.44146728515625
182	0.4443359375	298.929633245275	2.17315673828125E-05	0.44390869140625
183	0.44677734375	298.954033245214	2.227783203125E-05	0.44635009765625
184	0.44921875	298.978433245152	2.2418212890625E-05	0.448822021484375
185	0.45166015625	299.00283324509	2.29461669921875E-05	0.451202392578125
186	0.4541015625	299.027233245029	2.35137939453125E-05	0.45361328125
187	0.45654296875	299.051633244967	2.43316650390625E-05	0.456024169921875
188	0.458984375	299.076033244906	2.47894287109375E-05	0.45843505859375
189	0.46142578125	299.100433244844	2.53509521484375E-05	0.46087646484375
190	0.4638671875	299.124833244782	2.61260986328125E-05	0.4632568359375
191	0.46630859375	299.149233244721	2.69195556640625E-05	0.465667724609375
192	0.46875	299.173633244659	2.76702880859375E-05	0.468109130859375
193	0.47119140625	299.198033244598	2.83966064453125E-05	0.4705810546875
194	0.4736328125	299.222433244536	2.9022216796875E-05	0.472991943359375
195	0.47607421875	299.246833244474	2.98858642578125E-05	0.475433349609375
196	0.478515625	299.271233244413	3.07342529296875E-05	0.477783203125
197	0.48095703125	299.295633244351	3.1878662109375E-05	0.480865478515625
198	0.4833984375	299.32003324429	3.24798583984375E-05	0.4832763671875
199	0.48583984375	299.344433244228	3.34136962890625E-05	0.4857177734375
200	0.48828125	299.368833244166	3.43841552734375E-05	0.4881591796875
201	0.49072265625	299.393233244105	3.54766845703125E-05	0.490631103515625
202	0.4931640625	299.417633244043	3.66241455078125E-05	0.493011474609375
203	0.49560546875	299.442033243982	3.77044677734375E-05	0.495452880859375
204	0.498046875	299.46643324392	3.87115478515625E-05	0.4979248046875
205	0.50048828125	299.490833243858	3.97552490234375E-05	0.500396728515625
206	0.5029296875	299.515233243797	4.11895751953125E-05	0.502777099609375
207	0.50537109375	299.539633243735	4.2559814453125E-05	0.50518798828125
208	0.5078125	299.564033243674	4.38140869140625E-05	0.5076904296875
209	0.51025390625	299.588433243612	4.5306396484375E-05	0.5101318359375
210	0.5126953125	299.61283324355	4.67041015625E-05	0.512542724609375
211	0.51513671875	299.637233243489	4.8358154296875E-05	0.514984130859375
212	0.517578125	299.661633243427	5.010986328125E-05	0.517425537109375
213	0.52001953125	299.686033243366	5.1971435546875E-05	0.519866943359375
214	0.5224609375	299.710433243304	5.37109375E-05	0.522308349609375
215	0.52490234375	299.734833243242	5.5694580078125E-05	0.5247802734375
216	0.52734375	299.759233243181	5.7647705078125E-05	0.52716064453125
217	0.52978515625	299.783633243119	5.950927734375E-05	0.529571533203125
218	0.5322265625	299.808033243057	6.14013671875E-05	0.5321044921875
219	0.53466796875	299.832433242996	6.3690185546875E-05	0.534515380859375
220	0.537109375	299.856833242934	6.6192626953125E-05	0.536895751953125
221	0.53955078125	299.881233242873	6.8389892578125E-05	0.539337158203125
222	0.5419921875	299.905633242811	7.09228515625E-05	0.54180908203125
223	0.54443359375	299.930033242749	7.3516845703125E-05	0.544219970703125
224	0.546875	299.954433242688	7.659912109375E-05	0.546722412109375
225	0.54931640625	299.978833242626	7.9376220703125E-05	0.54913330078125
226	0.5517578125	300.003233242565	8.2550048828125E-05	0.55157470703125
227	0.55419921875	300.027633242503	8.575439453125E-05	0.553955078125
228	0.556640625	300.052033242441	8.9019775390625E-05	0.556427001953125
229	0.55908203125	300.07643324238	9.259033203125E-05	0.558837890625
230	0.5615234375	300.100833242318	9.6099853515625E-05	0.56134033203125
231	0.56396484375	300.125233242257	0.000100006103515625	0.56378173828125
232	0.56640625	300.149633242195	0.00010394287109375	0.566162109375
233	0.56884765625	300.174033242133	0.0001082763671875	0.568603515625
234	0.5712890625	300.198433242072	0.0001126708984375	0.571044921875
235	0.57373046875	300.22283324201	0.00011700439453125	0.573486328125
236	0.576171875	300.247233241949	0.000121734619140625	0.57586669921875
237	0.57861328125	300.271633241887	0.000126861572265625	0.578369140625
238	0.5810546875	300.296033241825	0.00013238525390625	0.580780029296875
239	0.58349609375	300.320433241764	0.000137603759765625	0.583221435546875
240	0.5859375	300.344833241702	0.00014306640625	0.585601806640625
241	0.58837890625	300.369233241641	0.00014923095703125	0.588043212890625
242	0.5908203125	300.393633241579	0.0001558837890625	0.59039306640625
243	0.59326171875	300.418033241517	0.000162139892578125	0.5928955078125
244	0.595703125	300.442433241456	0.00016900634765625	0.59527587890625
245	0.59814453125	300.466833241394	0.000176177978515625	0.59771728515625
246	0.6005859375	300.491233241333	0.000183624267578125	0.600128173828125
247	0.60302734375	300.515633241271	0.00019122314453125	0.602569580078125
248	0.60546875	300.540033241209	0.00019915771484375	0.605010986328125
249	0.60791015625	300.564433241148	0.00020745849609375	0.607391357421875
250	0.6103515625	300.588833241086	0.00021600341796875	0.60980224609375
251	0.61279296875	300.613233241025	0.000225311279296875	0.61224365234375
252	0.615234375	300.637633240963	0.00023468017578125	0.614654541015625
253	0.61767578125	300.662033240901	0.000244476318359375	0.61700439453125
254	0.6201171875	300.68643324084	0.0002547607421875	0.619476318359375
255	0.62255859375	300.710833240778	0.000265289306640625	0.62188720703125
256	0.625	300.735233240717	0.000276611328125	0.624267578125
257	0.62744140625	300.759633240655	0.000287933349609375	0.62664794921875
258	0.6298828125	300.784033240593	0.000300079345703125	0.629058837890625
259	0.63232421875	300.808433240532	0.00031268310546875	0.6322021484375
260	0.634765625	300.83283324047	0.00032562255859375	0.634613037109375
261	0.63720703125	300.857233240409	0.0003388671875	0.6370849609375
262	0.6396484375	300.881633240347	0.000352813720703125	0.639495849609375
263	0.64208984375	300.906033240285	0.000367401123046875	0.64190673828125
264	0.64453125	300.930433240224	0.00038250732421875	0.64434814453125
265	0.64697265625	300.954833240162	0.000398101806640625	0.646820068359375
266	0.6494140625	300.9792332401	0.0004140625	0.64923095703125
267	0.65185546875	301.003633240039	0.0004307861328125	0.651611328125
268	0.654296875	301.028033239977	0.000447662353515625	0.65411376953125
269	0.65673828125	301.052433239916	0.000465484619140625	0.656524658203125
270	0.6591796875	301.076833239854	0.000483856201171875	0.65899658203125
271	0.66162109375	301.101233239792	0.0005035400390625	0.661468505859375
272	0.6640625	301.125633239731	0.00052276611328125	0.663818359375
273	0.66650390625	301.150033239669	0.0005438232421875	0.666259765625
274	0.6689453125	301.174433239608	0.00056488037109375	0.668701171875
275	0.67138671875	301.198833239546	0.00058685302734375	0.671173095703125
276	0.673828125	301.223233239484	0.00060882568359375	0.673614501953125
277	0.67626953125	301.247633239423	0.00063201904296875	0.676055908203125
278	0.6787109375	301.272033239361	0.0006561279296875	0.678497314453125
279	0.68115234375	301.2964332393	0.000679931640625	0.680938720703125
280	0.68359375	301.320833239238	0.00070526123046875	0.683319091796875
281	0.68603515625	301.345233239176	0.00073089599609375	0.685791015625
282	0.6884765625	301.369633239115	0.0007574462890625	0.688201904296875
283	0.69091796875	301.394033239053	0.00078460693359375	0.69061279296875
284	0.693359375	301.418433238992	0.00081329345703125	0.69305419921875
285	0.69580078125	301.44283323893	0.00084228515625	0.69549560546875
286	0.6982421875	301.467233238868	0.00087158203125	0.69793701171875
287	0.70068359375	301.491633238807	0.000902099609375	0.70037841796875
288	0.703125	301.516033238745	0.0009332275390625	0.70281982421875
289	0.70556640625	301.540433238684	0.00096527099609375	0.705230712890625
290	0.7080078125	301.564833238622	0.0009979248046875	0.70770263671875
291	0.71044921875	301.58923323856	0.00103179931640625	0.71014404296875
292	0.712890625	301.613633238499	0.001065673828125	0.7125244140625
293	0.71533203125	301.638033238437	0.0011004638671875	0.7149658203125
294	0.7177734375	301.662433238376	0.001136474609375	0.71734619140625
295	0.72021484375	301.686833238314	0.00117279052734375	0.71978759765625
296	0.72265625	301.711233238252	0.00121063232421875	0.72222900390625
297	0.72509765625	301.735633238191	0.001248779296875	0.72467041015625
298	0.7275390625	301.760033238129	0.001287841796875	0.72711181640625
299	0.72998046875	301.784433238068	0.00132720947265625	0.729522705078125
300	0.732421875	301.808833238006	0.0013677978515625	0.731964111328125
301	0.73486328125	301.833233237944	0.0014093017578125	0.734405517578125
302	0.7373046875	301.857633237883	0.001451416015625	0.73681640625
303	0.73974609375	301.882033237821	0.00149383544921875	0.7392578125
304	0.7421875	301.90643323776	0.0015380859375	0.741607666015625
305	0.74462890625	301.930833237698	0.001583251953125	0.744110107421875
306	0.7470703125	301.955233237636	0.00162872314453125	0.746490478515625
307	0.74951171875	301.979633237575	0.0016748046875	0.748931884765625
308	0.751953125	302.004033237513	0.0017205810546875	0.75164794921875
309	0.75439453125	302.028433237452	0.00176849365234375	0.75408935546875
310	0.7568359375	302.05283323739	0.0018170166015625	0.75653076171875
311	0.75927734375	302.077233237328	0.00186614990234375	0.7586669921875
312	0.76171875	302.101633237267	0.00191619873046875	0.7611083984375
313	0.76416015625	302.126033237205	0.00196685791015625	0.76385498046875
314	0.7666015625	302.150433237143	0.00201873779296875	0.76568603515625
315	0.76904296875	302.174833237082	0.00207061767578125	0.76812744140625
316	0.771484375	302.19923323702	0.00212371826171875	0.77056884765625
317	0.77392578125	302.223633236959	0.002176513671875	0.7733154296875
318	0.7763671875	302.248033236897	0.00223114013671875	0.7757568359375
319	0.77880859375	302.272433236835	0.002286376953125	0.77789306640625
320	0.78125	302.296833236774	0.00234130859375	0.78094482421875
321	0.78369140625	302.321233236712	0.0023974609375	0.78338623046875
322	0.7861328125	302.345633236651	0.00245452880859375	0.7855224609375
323	0.78857421875	302.370033236589	0.0025128173828125	0.78826904296875
324	0.791015625	302.394433236527	0.00257049560546875	0.79010009765625
325	0.79345703125	302.418833236466	0.00262969970703125	0.7928466796875
326	0.7958984375	302.443233236404	0.00268829345703125	0.79498291015625
327	0.79833984375	302.467633236343	0.00274871826171875	0.7977294921875
328	0.80078125	302.492033236281	0.00280975341796875	0.799560546875
329	0.80322265625	302.516433236219	0.00287078857421875	0.8026123046875
330	0.8056640625	302.540833236158	0.00293304443359375	0.804443359375
331	0.80810546875	302.565233236096	0.0029949951171875	0.80718994140625
332	0.810546875	302.589633236035	0.00305877685546875	0.809326171875
333	0.81298828125	302.614033235973	0.0031219482421875	0.81268310546875
334	0.8154296875	302.638433235911	0.00318634033203125	0.81451416015625
335	0.81787109375	302.66283323585	0.0032501220703125	0.81695556640625
336	0.8203125	302.687233235788	0.00331512451171875	0.8197021484375
337	0.82275390625	302.711633235727	0.0033807373046875	0.8221435546875
338	0.8251953125	302.736033235665	0.003446044921875	0.82427978515625
339	0.82763671875	302.760433235603	0.0035113525390625	0.82672119140625
340	0.830078125	302.784833235542	0.00357635498046875	0.82916259765625
341	0.83251953125	302.80923323548	0.003642578125	0.83160400390625
342	0.8349609375	302.833633235419	0.003707275390625	0.83404541015625
343	0.83740234375	302.858033235357	0.00377227783203125	0.8367919921875
344	0.83984375	302.882433235295	0.00383575439453125	0.83892822265625
345	0.84228515625	302.906833235234	0.00389923095703125	0.84136962890625
346	0.8447265625	302.931233235172	0.00396209716796875	0.8441162109375
347	0.84716796875	302.955633235111	0.004022216796875	0.84625244140625
348	0.849609375	302.980033235049	0.0040814208984375	0.84869384765625
349	0.85205078125	303.004433234987	0.00413848876953125	0.850830078125
350	0.8544921875	303.028833234926	0.00419525146484375	0.8538818359375
351	0.85693359375	303.053233234864	0.0042486572265625	0.85662841796875
352	0.859375	303.077633234803	0.004300537109375	0.8587646484375
353	0.86181640625	303.102033234741	0.0043499755859375	0.86090087890625
354	0.8642578125	303.126433234679	0.00439788818359375	0.8636474609375
355	0.86669921875	303.150833234618	0.0044439697265625	0.8660888671875
356	0.869140625	303.175233234556	0.0044873046875	0.867919921875
357	0.87158203125	303.199633234495	0.00452911376953125	0.870361328125
358	0.8740234375	303.224033234433	0.00456878662109375	0.872802734375
359	0.87646484375	303.248433234371	0.0046075439453125	0.87615966796875
360	0.87890625	303.27283323431	0.00464447021484375	0.8782958984375
361	0.88134765625	303.297233234248	0.00467987060546875	0.8807373046875
362	0.8837890625	303.321633234186	0.0047137451171875	0.8831787109375
363	0.88623046875	303.346033234125	0.00474639892578125	0.88531494140625
364	0.888671875	303.370433234063	0.00477813720703125	0.887451171875
365	0.89111328125	303.394833234002	0.00480804443359375	0.8905029296875
366	0.8935546875	303.41923323394	0.004837646484375	0.892333984375
367	0.89599609375	303.443633233878	0.00486541748046875	0.89508056640625
368	0.8984375	303.468033233817	0.0048931884765625	0.897216796875
369	0.90087890625	303.492433233755	0.00491943359375	0.89996337890625
370	0.9033203125	303.516833233694	0.00494537353515625	0.90301513671875
371	0.90576171875	303.541233233632	0.00496978759765625	0.90545654296875
372	0.908203125	303.56563323357	0.004993896484375	0.90728759765625
373	0.91064453125	303.590033233509	0.0050177001953125	0.91033935546875
374	0.9130859375	303.614433233447	0.005040283203125	0.91278076171875
375	0.91552734375	303.638833233386	0.00506256103515625	0.9149169921875
376	0.91796875	303.663233233324	0.00508392333984375	0.9173583984375
377	0.92041015625	303.687633233262	0.00510498046875	0.919189453125
378	0.9228515625	303.712033233201	0.005125732421875	0.9222412109375
379	0.92529296875	303.736433233139	0.0051458740234375	0.92437744140625
380	0.927734375	303.760833233078	0.00516510009765625	0.9271240234375
381	0.93017578125	303.785233233016	0.005184326171875	0.9295654296875
382	0.9326171875	303.809633232954	0.0052032470703125	0.931396484375
383	0.93505859375	303.834033232893	0.0052215576171875	0.93414306640625
384	0.9375	303.858433232831	0.00523956298828125	0.936279296875
385	0.93994140625	303.88283323277	0.0052569580078125	0.9393310546875
386	0.9423828125	303.907233232708	0.00527435302734375	0.94207763671875
387	0.94482421875	303.931633232646	0.00529144287109375	0.94390869140625
388	0.947265625	303.956033232585	0.00530792236328125	0.94635009765625
389	0.94970703125	303.980433232523	0.0053240966796875	0.9490966796875
390	0.9521484375	304.004833232462	0.0053399658203125	0.95062255859375
391	0.95458984375	304.0292332324	0.0053558349609375	0.95367431640625
392	0.95703125	304.053633232338	0.00537109375	0.955810546875
393	0.95947265625	304.078033232277	0.0053863525390625	0.95855712890625
394	0.9619140625	304.102433232215	0.0054010009765625	0.9613037109375
395	0.96435546875	304.126833232154	0.00541595458984375	0.9637451171875
396	0.966796875	304.151233232092	0.0054302978515625	0.965576171875
397	0.96923828125	304.17563323203	0.0054443359375	0.9686279296875
398	0.9716796875	304.200033231969	0.00545806884765625	0.97137451171875
399	0.97412109375	304.224433231907	0.0054718017578125	0.97320556640625
400	0.9765625	304.248833231846	0.00548553466796875	0.97564697265625
401	0.97900390625	304.273233231784	0.00549896240234375	0.97808837890625
402	0.9814453125	304.297633231722	0.0055120849609375	0.9808349609375
403	0.98388671875	304.322033231661	0.00552490234375	0.98358154296875
404	0.986328125	304.346433231599	0.0055377197265625	0.98541259765625
405	0.98876953125	304.370833231538	0.005550537109375	0.987548828125
406	0.9912109375	304.395233231476	0.005562744140625	0.9906005859375
407	0.99365234375	304.419633231414	0.00557525634765625	0.99273681640625
408	0.99609375	304.444033231353	0.00558746337890625	0.994873046875
409	0.99853515625	304.468433231291	0.005599365234375	0.9979248046875
410	1.0009765625	304.492833231229	0.00561126708984375	1.00006103515625
411	1.00341796875	304.517233231168	0.00562286376953125	1.00250244140625
412	1.005859375	304.541633231106	0.0056341552734375	1.004638671875
413	1.00830078125	304.566033231045	0.005645751953125	1.0076904296875
414	1.0107421875	304.590433230983	0.00565704345703125	1.009521484375
415	1.01318359375	304.614833230921	0.0056683349609375	1.0125732421875
416	1.015625	304.63923323086	0.0056793212890625	1.0150146484375
417	1.01806640625	304.663633230798	0.0056903076171875	1.01715087890625
418	1.0205078125	304.688033230737	0.0057012939453125	1.019287109375
419	1.02294921875	304.712433230675	0.005711669921875	1.02203369140625
420	1.025390625	304.736833230613	0.00572235107421875	1.02447509765625
421	1.02783203125	304.761233230552	0.00573272705078125	1.026611328125
422	1.0302734375	304.78563323049	0.00574310302734375	1.0296630859375
423	1.03271484375	304.810033230429	0.00575347900390625	1.03240966796875
424	1.03515625	304.834433230367	0.0057635498046875	1.033935546875
425	1.03759765625	304.858833230305	0.00577362060546875	1.03668212890625
426	1.0400390625	304.883233230244	0.00578338623046875	1.03912353515625
427	1.04248046875	304.907633230182	0.00579345703125	1.04156494140625
428	1.044921875	304.932033230121	0.00580322265625	1.04400634765625
429	1.04736328125	304.956433230059	0.00581268310546875	1.0467529296875
430	1.0498046875	304.980833229997	0.0058221435546875	1.048583984375
431	1.05224609375	305.005233229936	0.0058319091796875	1.05133056640625
432	1.0546875	305.029633229874	0.00584136962890625	1.05377197265625
433	1.05712890625	305.054033229813	0.00585052490234375	1.05621337890625
434	1.0595703125	305.078433229751	0.00585968017578125	1.058349609375
435	1.06201171875	305.102833229689	0.00586883544921875	1.06048583984375
436	1.064453125	305.127233229628	0.00587799072265625	1.063232421875
437	1.06689453125	305.151633229566	0.00588714599609375	1.06597900390625
438	1.0693359375	305.176033229505	0.00589599609375	1.06781005859375
439	1.07177734375	305.200433229443	0.00590484619140625	1.0711669921875
440	1.07421875	305.224833229381	0.0059136962890625	1.072998046875
441	1.07666015625	305.24923322932	0.00592254638671875	1.07635498046875
442	1.0791015625	305.273633229258	0.00593109130859375	1.077880859375
443	1.08154296875	305.298033229197	0.00593963623046875	1.080322265625
444	1.083984375	305.322433229135	0.00594818115234375	1.0833740234375
445	1.08642578125	305.346833229073	0.00595672607421875	1.0858154296875
446	1.0888671875	305.371233229012	0.0059649658203125	1.087646484375
447	1.09130859375	305.39563322895	0.00597320556640625	1.090087890625
448	1.09375	305.420033228889	0.0059814453125	1.0931396484375
449	1.09619140625	305.444433228827	0.00598968505859375	1.0943603515625
450	1.0986328125	305.468833228765	0.0059979248046875	1.09771728515625
451	1.10107421875	305.493233228704	0.00600616455078125	1.10015869140625
452	1.103515625	305.517633228642	0.00601409912109375	1.1029052734375
453	1.10595703125	305.542033228581	0.006021728515625	1.104736328125
454	1.1083984375	305.566433228519	0.00602996826171875	1.1065673828125
455	1.11083984375	305.590833228457	0.00603790283203125	1.109619140625
456	1.11328125	305.615233228396	0.0060455322265625	1.11236572265625
457	1.11572265625	305.639633228334	0.00605316162109375	1.114501953125
458	1.1181640625	305.664033228273	0.00606109619140625	1.11724853515625
459	1.12060546875	305.688433228211	0.0060687255859375	1.11907958984375
460	1.123046875	305.712833228149	0.0060760498046875	1.121826171875
461	1.12548828125	305.737233228088	0.00608367919921875	1.124267578125
462	1.1279296875	305.761633228026	0.00609130859375	1.126708984375
463	1.13037109375	305.786033227964	0.0060986328125	1.12945556640625
464	1.1328125	305.810433227903	0.00610595703125	1.13189697265625
465	1.13525390625	305.834833227841	0.00611358642578125	1.13372802734375
466	1.1376953125	305.85923322778	0.00612060546875	1.136474609375
467	1.14013671875	305.883633227718	0.0061279296875	1.138916015625
468	1.142578125	305.908033227656	0.00613525390625	1.14166259765625
469	1.14501953125	305.932433227595	0.006142578125	1.14410400390625
470	1.1474609375	305.956833227533	0.00614959716796875	1.14654541015625
471	1.14990234375	305.981233227472	0.0061566162109375	1.14898681640625
472	1.15234375	306.00563322741	0.00616363525390625	1.15142822265625
473	1.15478515625	306.030033227348	0.006170654296875	1.15386962890625
474	1.1572265625	306.054433227287	0.00617767333984375	1.1566162109375
475	1.15966796875	306.078833227225	0.00618438720703125	1.1590576171875
476	1.162109375	306.103233227164	0.00619140625	1.160888671875
477	1.16455078125	306.127633227102	0.00619842529296875	1.1639404296875
478	1.1669921875	306.15203322704	0.00620513916015625	1.16607666015625
479	1.16943359375	306.176433226979	0.00621185302734375	1.16851806640625
480	1.171875	306.200833226917	0.00621856689453125	1.17095947265625
481	1.17431640625	306.225233226856	0.0062255859375	1.17340087890625
482	1.1767578125	306.249633226794	0.0062322998046875	1.175537109375
483	1.17919921875	306.274033226732	0.00623870849609375	1.1785888671875
484	1.181640625	306.298433226671	0.00624542236328125	1.180419921875
485	1.18408203125	306.322833226609	0.0062518310546875	1.1834716796875
486	1.1865234375	306.347233226548	0.006258544921875	1.18499755859375
487	1.18896484375	306.371633226486	0.00626495361328125	1.18743896484375
488	1.19140625	306.396033226424	0.0062713623046875	1.19049072265625
489	1.19384765625	306.420433226363	0.00627777099609375	1.192626953125
490	1.1962890625	306.444833226301	0.0062841796875	1.19476318359375
491	1.19873046875	306.46923322624	0.00629058837890625	1.197509765625
492	1.201171875	306.493633226178	0.0062969970703125	1.19964599609375
493	1.19873046875	306.518033226116	0.00628509521484375	1.197509765625
494	1.1962890625	306.542433226055	0.006273193359375	1.19537353515625
495	1.19384765625	306.566833225993	0.00626129150390625	1.192626953125
496	1.19140625	306.591233225932	0.00624908447265625	1.19049072265625
497	1.18896484375	306.61563322587	0.00623687744140625	1.18743896484375
498	1.1865234375	306.640033225808	0.00622467041015625	1.18560791015625
499	1.18408203125	306.664433225747	0.00621246337890625	1.18255615234375
500	1.181640625	306.688833225685	0.006199951171875	1.18072509765625
501	1.17919921875	306.713233225624	0.00618743896484375	1.177978515625
502	1.1767578125	306.737633225562	0.00617462158203125	1.175537109375
503	1.17431640625	306.7620332255	0.00616180419921875	1.17340087890625
504	1.171875	306.786433225439	0.00614898681640625	1.17095947265625
505	1.16943359375	306.810833225377	0.0061358642578125	1.1688232421875
506	1.1669921875	306.835233225316	0.0061224365234375	1.165771484375
507	1.16455078125	306.859633225254	0.00610931396484375	1.163330078125
508	1.162109375	306.884033225192	0.0060955810546875	1.16119384765625
509	1.15966796875	306.908433225131	0.00608245849609375	1.15814208984375
510	1.1572265625	306.932833225069	0.0060687255859375	1.15631103515625
511	1.15478515625	306.957233225007	0.0060546875	1.153564453125
512	1.15234375	306.981633224946	0.0060406494140625	1.15142822265625
513	1.14990234375	307.006033224884	0.006026611328125	1.148681640625
514	1.1474609375	307.030433224823	0.006011962890625	1.14654541015625
515	1.14501953125	307.054833224761	0.00599761962890625	1.14349365234375
516	1.142578125	307.079233224699	0.005982666015625	1.141357421875
517	1.14013671875	307.103633224638	0.005968017578125	1.138916015625
518	1.1376953125	307.128033224576	0.00595306396484375	1.1370849609375
519	1.13525390625	307.152433224515	0.00593780517578125	1.13494873046875
520	1.1328125	307.176833224453	0.0059222412109375	1.13189697265625
521	1.13037109375	307.201233224391	0.0059063720703125	1.12945556640625
522	1.1279296875	307.22563322433	0.00589080810546875	1.126708984375
523	1.12548828125	307.250033224268	0.0058746337890625	1.1248779296875
524	1.123046875	307.274433224207	0.00585845947265625	1.1224365234375
525	1.12060546875	307.298833224145	0.00584197998046875	1.119384765625
526	1.1181640625	307.323233224083	0.0058251953125	1.11663818359375
527	1.11572265625	307.347633224022	0.00580810546875	1.114501953125
528	1.11328125	307.37203322396	0.005791015625	1.11175537109375
529	1.11083984375	307.396433223899	0.00577362060546875	1.109619140625
530	1.1083984375	307.420833223837	0.005755615234375	1.1077880859375
531	1.10595703125	307.445233223775	0.00573760986328125	1.104736328125
532	1.103515625	307.469633223714	0.00571929931640625	1.1029052734375
533	1.10107421875	307.494033223652	0.00570068359375	1.10015869140625
534	1.0986328125	307.518433223591	0.00568145751953125	1.09771728515625
535	1.09619140625	307.542833223529	0.0056622314453125	1.09527587890625
536	1.09375	307.567233223467	0.0056427001953125	1.09222412109375
537	1.09130859375	307.591633223406	0.00562286376953125	1.090087890625
538	1.0888671875	307.616033223344	0.0056024169921875	1.0882568359375
539	1.08642578125	307.640433223283	0.00558135986328125	1.085205078125
540	1.083984375	307.664833223221	0.005560302734375	1.082763671875
541	1.08154296875	307.689233223159	0.00553863525390625	1.08123779296875
542	1.0791015625	307.713633223098	0.00551666259765625	1.07818603515625
543	1.07666015625	307.738033223036	0.0054937744140625	1.07635498046875
544	1.07421875	307.762433222975	0.00547088623046875	1.07330322265625
545	1.07177734375	307.786833222913	0.0054473876953125	1.07086181640625
546	1.0693359375	307.811233222851	0.0054229736328125	1.068115234375
547	1.06689453125	307.83563322279	0.00539825439453125	1.06658935546875
548	1.064453125	307.860033222728	0.00537261962890625	1.06353759765625
549	1.06201171875	307.884433222667	0.0053466796875	1.060791015625
550	1.0595703125	307.908833222605	0.00531982421875	1.0589599609375
551	1.05712890625	307.933233222543	0.0052923583984375	1.05621337890625
552	1.0546875	307.957633222482	0.005263671875	1.053466796875
553	1.05224609375	307.98203322242	0.005234375	1.05133056640625
554	1.0498046875	308.006433222359	0.0052044677734375	1.048583984375
555	1.04736328125	308.030833222297	0.00517303466796875	1.04644775390625
556	1.044921875	308.055233222235	0.0051409912109375	1.04400634765625
557	1.04248046875	308.079633222174	0.005107421875	1.04095458984375
558	1.0400390625	308.104033222112	0.00507293701171875	1.03912353515625
559	1.03759765625	308.12843322205	0.00503662109375	1.0369873046875
560	1.03515625	308.152833221989	0.00499908447265625	1.033935546875
561	1.03271484375	308.177233221927	0.004959716796875	1.031494140625
562	1.0302734375	308.201633221866	0.0049188232421875	1.02935791015625
563	1.02783203125	308.226033221804	0.00487579345703125	1.02691650390625
564	1.025390625	308.250433221742	0.00483062744140625	1.02447509765625
565	1.02294921875	308.274833221681	0.00478302001953125	1.02203369140625
566	1.0205078125	308.299233221619	0.004732666015625	1.01959228515625
567	1.01806640625	308.323633221558	0.0046795654296875	1.016845703125
568	1.015625	308.348033221496	0.00462310791015625	1.01409912109375
569	1.01318359375	308.372433221434	0.00456329345703125	1.011962890625
570	1.0107421875	308.396833221373	0.00449920654296875	1.0101318359375
571	1.00830078125	308.421233221311	0.00443145751953125	1.00738525390625
572	1.005859375	308.44563322125	0.00436004638671875	1.00555419921875
573	1.00341796875	308.470033221188	0.00428375244140625	1.0028076171875
574	1.0009765625	308.494433221126	0.00420318603515625	1.00067138671875
575	0.99853515625	308.518833221065	0.004117431640625	0.997314453125
576	0.99609375	308.543233221003	0.00402923583984375	0.99517822265625
577	0.99365234375	308.567633220942	0.00393798828125	0.99273681640625
578	0.9912109375	308.59203322088	0.00384429931640625	0.989990234375
579	0.98876953125	308.616433220818	0.003748779296875	0.9881591796875
580	0.986328125	308.640833220757	0.00365325927734375	0.98541259765625
581	0.98388671875	308.665233220695	0.00355865478515625	0.98358154296875
582	0.9814453125	308.689633220634	0.00346282958984375	0.98052978515625
583	0.97900390625	308.714033220572	0.00336822509765625	0.9783935546875
584	0.9765625	308.73843322051	0.0032745361328125	0.97564697265625
585	0.97412109375	308.762833220449	0.0031829833984375	0.972900390625
586	0.9716796875	308.787233220387	0.0030926513671875	0.97076416015625
587	0.96923828125	308.811633220326	0.0030035400390625	0.968017578125
588	0.966796875	308.836033220264	0.00291595458984375	0.96649169921875
589	0.96435546875	308.860433220202	0.00283111572265625	0.963134765625
590	0.9619140625	308.884833220141	0.002747802734375	0.96099853515625
591	0.95947265625	308.909233220079	0.002666015625	0.95916748046875
592	0.95703125	308.933633220018	0.0025860595703125	0.95611572265625
593	0.95458984375	308.958033219956	0.00250732421875	0.9539794921875
594	0.9521484375	308.982433219894	0.00243133544921875	0.95123291015625
595	0.94970703125	309.006833219833	0.002357177734375	0.94879150390625
596	0.947265625	309.031233219771	0.0022845458984375	0.9466552734375
597	0.94482421875	309.05563321971	0.0022137451171875	0.943603515625
598	0.9423828125	309.080033219648	0.002144775390625	0.941162109375
599	0.93994140625	309.104433219586	0.0020782470703125	0.93902587890625
600	0.9375	309.128833219525	0.002012939453125	0.936279296875
601	0.93505859375	309.153233219463	0.001949462890625	0.9344482421875
602	0.9326171875	309.177633219402	0.00188720703125	0.9320068359375
603	0.93017578125	309.20203321934	0.00182769775390625	0.92926025390625
604	0.927734375	309.226433219278	0.00177032470703125	0.92681884765625
605	0.92529296875	309.250833219217	0.0017138671875	0.924072265625
606	0.9228515625	309.275233219155	0.00165924072265625	0.92193603515625
607	0.92041015625	309.299633219093	0.0016064453125	0.91888427734375
608	0.91796875	309.324033219032	0.00155548095703125	0.916748046875
609	0.91552734375	309.34843321897	0.0015057373046875	0.91461181640625
610	0.9130859375	309.372833218909	0.0014581298828125	0.91217041015625
611	0.91064453125	309.397233218847	0.0014111328125	0.90972900390625
612	0.908203125	309.421633218785	0.00136688232421875	0.90728759765625
613	0.90576171875	309.446033218724	0.00132415771484375	0.904541015625
614	0.9033203125	309.470433218662	0.0012823486328125	0.9027099609375
615	0.90087890625	309.494833218601	0.00124176025390625	0.9002685546875
616	0.8984375	309.519233218539	0.001202392578125	0.8978271484375
617	0.89599609375	309.543633218477	0.0011651611328125	0.894775390625
618	0.8935546875	309.568033218416	0.00112884521484375	0.8929443359375
619	0.89111328125	309.592433218354	0.00109405517578125	0.89019775390625
620	0.888671875	309.616833218293	0.00106048583984375	0.887451171875
621	0.88623046875	309.641233218231	0.00102813720703125	0.88531494140625
622	0.8837890625	309.665633218169	0.000997314453125	0.8831787109375
623	0.88134765625	309.690033218108	0.0009674072265625	0.880126953125
624	0.87890625	309.714433218046	0.00093841552734375	0.87799072265625
625	0.87646484375	309.738833217985	0.0009100341796875	0.875244140625
626	0.8740234375	309.763233217923	0.00088348388671875	0.8734130859375
627	0.87158203125	309.787633217861	0.0008575439453125	0.87066650390625
628	0.869140625	309.8120332178	0.00083282470703125	0.86822509765625
629	0.86669921875	309.836433217738	0.00080902099609375	0.86578369140625
630	0.8642578125	309.860833217677	0.0007861328125	0.8636474609375
631	0.86181640625	309.885233217615	0.00076446533203125	0.860595703125
632	0.859375	309.909633217553	0.0007427978515625	0.858154296875
633	0.85693359375	309.934033217492	0.00072235107421875	0.8563232421875
634	0.8544921875	309.95843321743	0.00070220947265625	0.8538818359375
635	0.85205078125	309.982833217369	0.0006829833984375	0.8514404296875
636	0.849609375	310.007233217307	0.00066558837890625	0.84869384765625
637	0.84716796875	310.031633217245	0.00064788818359375	0.845947265625
638	0.8447265625	310.056033217184	0.00063079833984375	0.84381103515625
639	0.84228515625	310.080433217122	0.00061431884765625	0.84197998046875
640	0.83984375	310.104833217061	0.0005987548828125	0.8392333984375
641	0.83740234375	310.129233216999	0.00058319091796875	0.8367919921875
642	0.8349609375	310.153633216937	0.00056854248046875	0.83404541015625
643	0.83251953125	310.178033216876	0.00055389404296875	0.8319091796875
644	0.830078125	310.202433216814	0.0005401611328125	0.828857421875
645	0.82763671875	310.226833216753	0.00052703857421875	0.826416015625
646	0.8251953125	310.251233216691	0.0005145263671875	0.823974609375
647	0.82275390625	310.275633216629	0.00050201416015625	0.8221435546875
648	0.8203125	310.300033216568	0.000489532470703125	0.82000732421875
649	0.81787109375	310.324433216506	0.000478179931640625	0.8172607421875
650	0.8154296875	310.348833216445	0.000466888427734375	0.81451416015625
651	0.81298828125	310.373233216383	0.000455963134765625	0.8123779296875
652	0.810546875	310.397633216321	0.00044525146484375	0.80963134765625
653	0.80810546875	310.42203321626	0.00043487548828125	0.80718994140625
654	0.8056640625	310.446433216198	0.0004256591796875	0.80474853515625
655	0.80322265625	310.470833216136	0.000416229248046875	0.8026123046875
656	0.80078125	310.495233216075	0.00040655517578125	0.8001708984375
657	0.79833984375	310.519633216013	0.00039752197265625	0.79742431640625
658	0.7958984375	310.544033215952	0.0003887939453125	0.79498291015625
659	0.79345703125	310.56843321589	0.000380340576171875	0.792236328125
660	0.791015625	310.592833215828	0.000371673583984375	0.7904052734375
661	0.78857421875	310.617233215767	0.000363922119140625	0.7879638671875
662	0.7861328125	310.641633215705	0.00035595703125	0.7855224609375
663	0.78369140625	310.666033215644	0.000348388671875	0.7830810546875
664	0.78125	310.690433215582	0.00034112548828125	0.7806396484375
665	0.77880859375	310.71483321552	0.00033367919921875	0.77850341796875
666	0.7763671875	310.739233215459	0.00032647705078125	0.77545166015625
667	0.77392578125	310.763633215397	0.000319671630859375	0.77301025390625
668	0.771484375	310.788033215336	0.000313018798828125	0.7708740234375
669	0.76904296875	310.812433215274	0.0003062744140625	0.7684326171875
670	0.7666015625	310.836833215212	0.0002998046875	0.7659912109375
671	0.76416015625	310.861233215151	0.000293792724609375	0.7635498046875
672	0.76171875	310.885633215089	0.000287811279296875	0.760498046875
673	0.75927734375	310.910033215028	0.000281494140625	0.7586669921875
674	0.7568359375	310.934433214966	0.000275482177734375	0.7562255859375
675	0.75439453125	310.958833214904	0.00027008056640625	0.7537841796875
676	0.751953125	310.983233214843	0.000264373779296875	0.7513427734375
677	0.74951171875	311.007633214781	0.000259307861328125	0.749298095703125
678	0.7470703125	311.03203321472	0.000253570556640625	0.746826171875
679	0.74462890625	311.056433214658	0.000248291015625	0.744384765625
680	0.7421875	311.080833214596	0.000242919921875	0.741943359375
681	0.73974609375	311.105233214535	0.000238006591796875	0.739471435546875
682	0.7373046875	311.129633214473	0.0002332763671875	0.737060546875
683	0.73486328125	311.154033214412	0.000228759765625	0.734619140625
684	0.732421875	311.17843321435	0.000223846435546875	0.732147216796875
685	0.72998046875	311.202833214288	0.000219024658203125	0.729766845703125
686	0.7275390625	311.227233214227	0.00021441650390625	0.727294921875
687	0.72509765625	311.251633214165	0.000209991455078125	0.724853515625
688	0.72265625	311.276033214104	0.000205841064453125	0.72247314453125
689	0.72021484375	311.300433214042	0.00020135498046875	0.72003173828125
690	0.7177734375	311.32483321398	0.000197265625	0.71759033203125
691	0.71533203125	311.349233213919	0.00019317626953125	0.7152099609375
692	0.712890625	311.373633213857	0.000189300537109375	0.712677001953125
693	0.71044921875	311.398033213796	0.00018511962890625	0.710205078125
694	0.7080078125	311.422433213734	0.000181182861328125	0.707794189453125
695	0.70556640625	311.446833213672	0.000177581787109375	0.705322265625
696	0.703125	311.471233213611	0.000173736572265625	0.702972412109375
697	0.70068359375	311.495633213549	0.0001700439453125	0.700469970703125
698	0.6982421875	311.520033213488	0.000166412353515625	0.698089599609375
699	0.69580078125	311.544433213426	0.0001630859375	0.69561767578125
700	0.693359375	311.568833213364	0.00015960693359375	0.69317626953125
701	0.69091796875	311.593233213303	0.000156036376953125	0.690765380859375
702	0.6884765625	311.617633213241	0.00015277099609375	0.68829345703125
703	0.68603515625	311.64203321318	0.000149505615234375	0.68585205078125
704	0.68359375	311.666433213118	0.00014691162109375	0.68341064453125
705	0.68115234375	311.690833213056	0.00014324951171875	0.680999755859375
706	0.6787109375	311.715233212995	0.00013995361328125	0.67852783203125
707	0.67626953125	311.739633212933	0.000137054443359375	0.676177978515625
708	0.673828125	311.764033212871	0.000134124755859375	0.673675537109375
709	0.67138671875	311.78843321281	0.00013134765625	0.671234130859375
710	0.6689453125	311.812833212748	0.0001285400390625	0.668792724609375
711	0.66650390625	311.837233212687	0.0001259765625	0.66632080078125
712	0.6640625	311.861633212625	0.00012298583984375	0.6639404296875
713	0.66162109375	311.886033212563	0.000120269775390625	0.661407470703125
714	0.6591796875	311.910433212502	0.000117919921875	0.65911865234375
715	0.65673828125	311.93483321244	0.000115570068359375	0.6566162109375
716	0.654296875	311.959233212379	0.000112945556640625	0.6541748046875
717	0.65185546875	311.983633212317	0.000110687255859375	0.65167236328125
718	0.6494140625	312.008033212255	0.00010791015625	0.649261474609375
719	0.64697265625	312.032433212194	0.000105712890625	0.646820068359375
720	0.64453125	312.056833212132	0.00010345458984375	0.6444091796875
721	0.64208984375	312.081233212071	0.00010107421875	0.6419677734375
722	0.6396484375	312.105633212009	9.8846435546875E-05	0.639556884765625
723	0.63720703125	312.130033211947	9.674072265625E-05	0.637115478515625
724	0.634765625	312.154433211886	9.4635009765625E-05	0.634613037109375
725	0.63232421875	312.178833211824	9.2498779296875E-05	0.632232666015625
726	0.6298828125	312.203233211763	9.0667724609375E-05	0.629791259765625
727	0.62744140625	312.227633211701	8.8592529296875E-05	0.62713623046875
728	0.625	312.252033211639	8.6517333984375E-05	0.624786376953125
729	0.62255859375	312.276433211578	8.4808349609375E-05	0.622283935546875
730	0.6201171875	312.300833211516	8.2794189453125E-05	0.61993408203125
731	0.61767578125	312.325233211455	8.123779296875E-05	0.61749267578125
732	0.615234375	312.349633211393	7.9132080078125E-05	0.615020751953125
733	0.61279296875	312.374033211331	7.7850341796875E-05	0.61260986328125
734	0.6103515625	312.39843321127	7.5714111328125E-05	0.610137939453125
735	0.60791015625	312.422833211208	7.38525390625E-05	0.607696533203125
736	0.60546875	312.447233211147	7.232666015625E-05	0.605316162109375
737	0.60302734375	312.471633211085	7.0831298828125E-05	0.602813720703125
738	0.6005859375	312.496033211023	6.8939208984375E-05	0.600372314453125
739	0.59814453125	312.520433210962	6.732177734375E-05	0.59796142578125
740	0.595703125	312.5448332109	6.6070556640625E-05	0.595550537109375
741	0.59326171875	312.569233210839	6.4666748046875E-05	0.593017578125
742	0.5908203125	312.593633210777	6.329345703125E-05	0.59063720703125
743	0.58837890625	312.618033210715	6.1859130859375E-05	0.588165283203125
744	0.5859375	312.642433210654	6.0302734375E-05	0.585784912109375
745	0.58349609375	312.666833210592	5.9051513671875E-05	0.583343505859375
746	0.5810546875	312.691233210531	5.7861328125E-05	0.58087158203125
747	0.57861328125	312.715633210469	5.6640625E-05	0.57843017578125
748	0.576171875	312.740033210407	5.5206298828125E-05	0.57598876953125
749	0.57373046875	312.764433210346	5.4107666015625E-05	0.5736083984375
750	0.5712890625	312.788833210284	5.2581787109375E-05	0.571136474609375
751	0.56884765625	312.813233210223	5.1605224609375E-05	0.56866455078125
752	0.56640625	312.837633210161	5.04150390625E-05	0.56622314453125
753	0.56396484375	312.862033210099	4.920654296875E-05	0.56378173828125
754	0.5615234375	312.886433210038	4.81231689453125E-05	0.561370849609375
755	0.55908203125	312.910833209976	4.7125244140625E-05	0.55889892578125
756	0.556640625	312.935233209914	4.60205078125E-05	0.55645751953125
757	0.55419921875	312.959633209853	4.48638916015625E-05	0.5540771484375
758	0.5517578125	312.984033209791	4.41162109375E-05	0.551666259765625
759	0.54931640625	313.00843320973	4.30908203125E-05	0.5491943359375
760	0.546875	313.032833209668	4.21875E-05	0.546722412109375
761	0.54443359375	313.057233209606	4.12261962890625E-05	0.54425048828125
762	0.5419921875	313.081633209545	4.02435302734375E-05	0.541900634765625
763	0.53955078125	313.106033209483	3.93798828125E-05	0.539398193359375
764	0.537109375	313.130433209422	3.84857177734375E-05	0.5369873046875
765	0.53466796875	313.15483320936	3.76007080078125E-05	0.5345458984375
766	0.5322265625	313.179233209298	3.68408203125E-05	0.532135009765625
767	0.52978515625	313.203633209237	3.60626220703125E-05	0.529632568359375
768	0.52734375	313.228033209175	3.53912353515625E-05	0.527252197265625
769	0.52490234375	313.252433209114	3.4375E-05	0.524749755859375
770	0.5224609375	313.276833209052	3.36700439453125E-05	0.522308349609375
771	0.52001953125	313.30123320899	3.28033447265625E-05	0.519866943359375
772	0.517578125	313.325633208929	3.22052001953125E-05	0.517425537109375
773	0.51513671875	313.350033208867	3.133544921875E-05	0.5150146484375
774	0.5126953125	313.374433208806	3.08624267578125E-05	0.512603759765625
775	0.51025390625	313.398833208744	2.98828125E-05	0.510162353515625
776	0.5078125	313.423233208682	2.939453125E-05	0.5076904296875
777	0.50537109375	313.447633208621	2.8759765625E-05	0.505279541015625
778	0.5029296875	313.472033208559	2.80364990234375E-05	0.502777099609375
779	0.50048828125	313.496433208498	2.764892578125E-05	0.5003662109375
780	0.498046875	313.520833208436	2.71820068359375E-05	0.497894287109375
781	0.49560546875	313.545233208374	2.655029296875E-05	0.495513916015625
782	0.4931640625	313.569633208313	2.57904052734375E-05	0.4930419921875
783	0.49072265625	313.594033208251	2.53936767578125E-05	0.4906005859375
784	0.48828125	313.61843320819	2.474365234375E-05	0.488189697265625
785	0.48583984375	313.642833208128	2.42584228515625E-05	0.485748291015625
786	0.4833984375	313.667233208066	2.369384765625E-05	0.48333740234375
787	0.48095703125	313.691633208005	2.327880859375E-05	0.48089599609375
788	0.478515625	313.716033207943	2.28057861328125E-05	0.478424072265625
789	0.47607421875	313.740433207882	2.24212646484375E-05	0.475982666015625
790	0.4736328125	313.76483320782	2.20428466796875E-05	0.47357177734375
791	0.47119140625	313.789233207758	2.13409423828125E-05	0.471160888671875
792	0.46875	313.813633207697	2.1124267578125E-05	0.468658447265625
793	0.46630859375	313.838033207635	2.05535888671875E-05	0.466278076171875
794	0.4638671875	313.862433207574	2.022705078125E-05	0.463775634765625
795	0.46142578125	313.886833207512	1.981201171875E-05	0.46136474609375
796	0.458984375	313.91123320745	1.94091796875E-05	0.458892822265625
797	0.45654296875	313.935633207389	1.90948486328125E-05	0.456512451171875
798	0.4541015625	313.960033207327	1.85821533203125E-05	0.45404052734375
799	0.45166015625	313.984433207266	1.85272216796875E-05	0.451568603515625
800	0.44921875	314.008833207204	1.78741455078125E-05	0.44915771484375
801	0.44677734375	314.033233207142	1.76910400390625E-05	0.44671630859375
802	0.4443359375	314.057633207081	1.7303466796875E-05	0.44427490234375
803	0.44189453125	314.082033207019	1.70867919921875E-05	0.441864013671875
804	0.439453125	314.106433206957	1.66778564453125E-05	0.439453125
805	0.43701171875	314.130833206896	1.6278076171875E-05	0.43695068359375
806	0.4345703125	314.155233206834	1.61163330078125E-05	0.434539794921875
807	0.43212890625	314.179633206773	1.5716552734375E-05	0.43206787109375
808	0.4296875	314.204033206711	1.5576171875E-05	0.42962646484375
809	0.42724609375	314.228433206649	1.51763916015625E-05	0.42724609375
810	0.4248046875	314.252833206588	1.488037109375E-05	0.424774169921875
811	0.42236328125	314.277233206526	1.45477294921875E-05	0.422332763671875
812	0.419921875	314.301633206465	1.44927978515625E-05	0.419952392578125
813	0.41748046875	314.326033206403	1.4190673828125E-05	0.417388916015625
814	0.4150390625	314.350433206341	1.383056640625E-05	0.415069580078125
815	0.41259765625	314.37483320628	1.36627197265625E-05	0.41253662109375
816	0.41015625	314.399233206218	1.3250732421875E-05	0.410125732421875
817	0.40771484375	314.423633206157	1.3140869140625E-05	0.407684326171875
818	0.4052734375	314.448033206095	1.26739501953125E-05	0.405181884765625
819	0.40283203125	314.472433206033	1.26312255859375E-05	0.402862548828125
820	0.400390625	314.496833205972	1.23931884765625E-05	0.400360107421875
821	0.39794921875	314.52123320591	1.20391845703125E-05	0.39794921875
822	0.3955078125	314.545633205849	1.17889404296875E-05	0.395477294921875
823	0.39306640625	314.570033205787	1.16363525390625E-05	0.39300537109375
824	0.390625	314.594433205725	1.15081787109375E-05	0.390625
825	0.38818359375	314.618833205664	1.1309814453125E-05	0.38818359375
826	0.3857421875	314.643233205602	1.129150390625E-05	0.385711669921875
827	0.38330078125	314.667633205541	1.09100341796875E-05	0.38323974609375
828	0.380859375	314.692033205479	1.07452392578125E-05	0.380859375
829	0.37841796875	314.716433205417	1.04400634765625E-05	0.378387451171875
830	0.3759765625	314.740833205356	1.02630615234375E-05	0.3759765625
831	0.37353515625	314.765233205294	1.025390625E-05	0.373565673828125
832	0.37109375	314.789633205233	9.8846435546875E-06	0.37115478515625
833	0.36865234375	314.814033205171	9.80224609375E-06	0.368621826171875
834	0.3662109375	314.838433205109	9.552001953125E-06	0.366180419921875
835	0.36376953125	314.862833205048	9.442138671875E-06	0.36370849609375
836	0.361328125	314.887233204986	9.2010498046875E-06	0.361328125
837	0.35888671875	314.911633204925	9.1064453125E-06	0.358734130859375
838	0.3564453125	314.936033204863	8.8287353515625E-06	0.356292724609375
839	0.35400390625	314.960433204801	8.6456298828125E-06	0.35382080078125
840	0.3515625	314.98483320474	8.612060546875E-06	0.3514404296875
841	0.34912109375	315.009233204678	8.4625244140625E-06	0.34893798828125
842	0.3466796875	315.033633204617	8.36181640625E-06	0.34649658203125
843	0.34423828125	315.058033204555	8.0718994140625E-06	0.3441162109375
844	0.341796875	315.082433204493	7.9071044921875E-06	0.341644287109375
845	0.33935546875	315.106833204432	7.72705078125E-06	0.339202880859375
846	0.3369140625	315.13123320437	7.513427734375E-06	0.3367919921875
847	0.33447265625	315.155633204309	7.4249267578125E-06	0.334320068359375
848	0.33203125	315.180033204247	7.3638916015625E-06	0.3319091796875
849	0.32958984375	315.204433204185	7.2967529296875E-06	0.3294677734375
850	0.3271484375	315.228833204124	7.122802734375E-06	0.3270263671875
851	0.32470703125	315.253233204062	7.110595703125E-06	0.324554443359375
852	0.322265625	315.277633204	6.82373046875E-06	0.32208251953125
853	0.31982421875	315.302033203939	6.787109375E-06	0.319732666015625
854	0.3173828125	315.326433203877	6.5643310546875E-06	0.31719970703125
855	0.31494140625	315.350833203816	6.45751953125E-06	0.3148193359375
856	0.3125	315.375233203754	6.3720703125E-06	0.312408447265625
857	0.31005859375	315.399633203692	6.2408447265625E-06	0.309967041015625
858	0.3076171875	315.424033203631	6.1279296875E-06	0.3074951171875
859	0.30517578125	315.448433203569	5.9844970703125E-06	0.305084228515625
860	0.302734375	315.472833203508	5.877685546875E-06	0.302581787109375
861	0.30029296875	315.497233203446	5.6732177734375E-06	0.3001708984375
862	0.2978515625	315.521633203384	5.6854248046875E-06	0.2977294921875
863	0.29541015625	315.546033203323	5.5419921875E-06	0.2952880859375
864	0.29296875	315.570433203261	5.46875E-06	0.29290771484375
865	0.29052734375	315.5948332032	5.46875E-06	0.2904052734375
866	0.2880859375	315.619233203138	5.18798828125E-06	0.2879638671875
867	0.28564453125	315.643633203076	5.0506591796875E-06	0.2855224609375
868	0.283203125	315.668033203015	4.9530029296875E-06	0.2830810546875
869	0.28076171875	315.692433202953	4.8553466796875E-06	0.2806396484375
870	0.2783203125	315.716833202892	4.676513671875E-06	0.2781982421875
871	0.27587890625	315.74123320283	4.67803955078125E-06	0.2757568359375
872	0.2734375	315.765633202768	4.64630126953125E-06	0.27337646484375
873	0.27099609375	315.790033202707	4.561767578125E-06	0.270904541015625
874	0.2685546875	315.814433202645	4.46563720703125E-06	0.26849365234375
875	0.26611328125	315.838833202584	4.34539794921875E-06	0.26605224609375
876	0.263671875	315.863233202522	4.2852783203125E-06	0.26361083984375
877	0.26123046875	315.88763320246	4.12109375E-06	0.26116943359375
878	0.2587890625	315.912033202399	4.03717041015625E-06	0.25872802734375
879	0.25634765625	315.936433202337	3.89801025390625E-06	0.256256103515625
880	0.25390625	315.960833202276	3.8116455078125E-06	0.25384521484375
881	0.25146484375	315.985233202214	3.69873046875E-06	0.251434326171875
882	0.2490234375	316.009633202152	3.52935791015625E-06	0.248992919921875
883	0.24658203125	316.034033202091	3.470458984375E-06	0.2464599609375
884	0.244140625	316.058433202029	3.33404541015625E-06	0.244140625
885	0.24169921875	316.082833201968	3.343505859375E-06	0.24163818359375
886	0.2392578125	316.107233201906	3.15032958984375E-06	0.239227294921875
887	0.23681640625	316.131633201844	3.07861328125E-06	0.236785888671875
888	0.234375	316.156033201783	2.92816162109375E-06	0.234375
889	0.23193359375	316.180433201721	2.91046142578125E-06	0.231903076171875
890	0.2294921875	316.20483320166	2.80975341796875E-06	0.229461669921875
891	0.22705078125	316.229233201598	2.79327392578125E-06	0.22698974609375
892	0.224609375	316.253633201536	2.6513671875E-06	0.22454833984375
893	0.22216796875	316.278033201475	2.58544921875E-06	0.222198486328125
894	0.2197265625	316.302433201413	2.56500244140625E-06	0.21966552734375
895	0.21728515625	316.326833201352	2.35198974609375E-06	0.217254638671875
896	0.21484375	316.35123320129	2.3651123046875E-06	0.21484375
897	0.21240234375	316.375633201228	2.16339111328125E-06	0.212371826171875
898	0.2099609375	316.400033201167	2.07611083984375E-06	0.209930419921875
899	0.20751953125	316.424433201105	2.07733154296875E-06	0.207489013671875
900	0.205078125	316.448833201043	1.96380615234375E-06	0.205047607421875
901	0.20263671875	316.473233200982	1.93359375E-06	0.202667236328125
902	0.2001953125	316.49763320092	1.77825927734375E-06	0.20025634765625
903	0.19775390625	316.522033200859	1.73583984375E-06	0.197784423828125
904	0.1953125	316.546433200797	1.6064453125E-06	0.195343017578125
905	0.19287109375	316.570833200735	1.50390625E-06	0.19287109375
906	0.1904296875	316.595233200674	1.47064208984375E-06	0.190399169921875
907	0.18798828125	316.619633200612	1.35040283203125E-06	0.18798828125
908	0.185546875	316.644033200551	1.29547119140625E-06	0.185546875
909	0.18310546875	316.668433200489	1.17431640625E-06	0.18310546875
910	0.1806640625	316.692833200427	1.04888916015625E-06	0.180694580078125
911	0.17822265625	316.717233200366	9.149169921875E-07	0.17822265625
912	0.17578125	316.741633200304	8.9813232421875E-07	0.17584228515625
913	0.17333984375	316.766033200243	7.9254150390625E-07	0.17333984375
914	0.1708984375	316.790433200181	6.9122314453125E-07	0.170928955078125
915	0.16845703125	316.814833200119	6.036376953125E-07	0.168426513671875
916	0.166015625	316.839233200058	4.7760009765625E-07	0.16595458984375
917	0.16357421875	316.863633199996	4.876708984375E-07	0.163482666015625
918	0.1611328125	316.888033199935	2.81402587890625E-07	0.1610107421875
919	0.15869140625	316.912433199873	3.41827392578125E-07	0.158721923828125
920	0.15625	316.936833199811	1.54876708984375E-07	0.15625
921	0.15380859375	316.96123319975	1.12823486328125E-07	0.153839111328125
922	0.1513671875	316.985633199688	-1.64794921875E-08	0.151397705078125
923	0.14892578125	317.010033199627	-7.1319580078125E-08	0.14892578125
924	0.146484375	317.034433199565	-1.6424560546875E-07	0.146514892578125
925	0.14404296875	317.058833199503	-2.77618408203125E-07	0.14410400390625
926	0.1416015625	317.083233199442	-2.4066162109375E-07	0.141693115234375
927	0.13916015625	317.10763319938	-4.6600341796875E-07	0.139251708984375
928	0.13671875	317.132033199319	-4.1168212890625E-07	0.1368408203125
929	0.13427734375	317.156433199257	-5.6640625E-07	0.13433837890625
930	0.1318359375	317.180833199195	-6.439208984375E-07	0.131988525390625
931	0.12939453125	317.205233199134	-7.5164794921875E-07	0.1295166015625
932	0.126953125	317.229633199072	-7.89794921875E-07	0.127105712890625
933	0.12451171875	317.254033199011	-9.124755859375E-07	0.12469482421875
934	0.1220703125	317.278433198949	-1.0150146484375E-06	0.122283935546875
935	0.11962890625	317.302833198887	-9.3414306640625E-07	0.119781494140625
936	0.1171875	317.327233198826	-1.1822509765625E-06	0.11737060546875
937	0.11474609375	317.351633198764	-1.15386962890625E-06	0.11492919921875
938	0.1123046875	317.376033198703	-1.3134765625E-06	0.112518310546875
939	0.10986328125	317.400433198641	-1.29241943359375E-06	0.11004638671875
940	0.107421875	317.424833198579	-1.412353515625E-06	0.107696533203125
941	0.10498046875	317.449233198518	-1.4923095703125E-06	0.10528564453125
942	0.1025390625	317.473633198456	-1.54571533203125E-06	0.102783203125
943	0.10009765625	317.498033198395	-1.7138671875E-06	0.100372314453125
944	0.09765625	317.522433198333	-1.6619873046875E-06	0.097930908203125
945	0.09521484375	317.546833198271	-1.8536376953125E-06	0.095458984375
946	0.0927734375	317.57123319821	-1.85821533203125E-06	0.09307861328125
947	0.09033203125	317.595633198148	-1.99371337890625E-06	0.090576171875
948	0.087890625	317.620033198087	-1.97174072265625E-06	0.0882568359375
949	0.08544921875	317.644433198025	-2.0697021484375E-06	0.085784912109375
950	0.0830078125	317.668833197963	-2.17987060546875E-06	0.0833740234375
951	0.08056640625	317.693233197902	-2.20550537109375E-06	0.0809326171875
952	0.078125	317.71763319784	-2.36663818359375E-06	0.078521728515625
953	0.07568359375	317.742033197778	-2.35504150390625E-06	0.0760498046875
954	0.0732421875	317.766433197717	-2.51678466796875E-06	0.073638916015625
955	0.07080078125	317.790833197655	-2.523193359375E-06	0.071258544921875
956	0.068359375	317.815233197594	-2.64251708984375E-06	0.068756103515625
957	0.06591796875	317.839633197532	-2.691650390625E-06	0.06640625
958	0.0634765625	317.86403319747	-2.752685546875E-06	0.0640869140625
959	0.06103515625	317.888433197409	-2.86834716796875E-06	0.061553955078125
960	0.05859375	317.912833197347	-2.867431640625E-06	0.059112548828125
961	0.05615234375	317.937233197286	-3.02337646484375E-06	0.056671142578125
962	0.0537109375	317.961633197224	-2.99041748046875E-06	0.053741455078125
963	0.05126953125	317.986033197162	-3.15399169921875E-06	0.05133056640625
964	0.048828125	318.010433197101	-3.14727783203125E-06	0.048974609375
965	0.04638671875	318.034833197039	-3.25775146484375E-06	0.04654541015625
966	0.0439453125	318.059233196978	-3.29193115234375E-06	0.0441192626953125
967	0.04150390625	318.083633196916	-3.34991455078125E-06	0.0416748046875
968	0.0390625	318.108033196854	-3.46649169921875E-06	0.0391998291015625
969	0.03662109375	318.132433196793	-3.466796875E-06	0.0367584228515625
970	0.0341796875	318.156833196731	-3.61053466796875E-06	0.034332275390625
971	0.03173828125	318.18123319667	-3.551025390625E-06	0.031890869140625
972	0.029296875	318.205633196608	-3.7078857421875E-06	0.029449462890625
973	0.02685546875	318.230033196546	-3.71307373046875E-06	0.027008056640625
974	0.0244140625	318.254433196485	-3.81622314453125E-06	0.0245758056640625
975	0.02197265625	318.278833196423	-3.86962890625E-06	0.02213134765625
976	0.01953125	318.303233196362	-3.902587890625E-06	0.0196807861328125
977	0.01708984375	318.3276331963	-4.041748046875E-06	0.0172393798828125
978	0.0146484375	318.352033196238	-4.02374267578125E-06	0.0148101806640625
979	0.01220703125	318.376433196177	-4.1851806640625E-06	0.012371826171875
980	0.009765625	318.400833196115	-4.14276123046875E-06	0.0099334716796875
981	0.00732421875	318.425233196054	-4.29931640625E-06	0.00745239257812499
982	0.0048828125	318.449633195992	-4.3255615234375E-06	0.0050384521484375
983	0.00244140625	318.47403319593	-4.42108154296875E-06	0.00258789062500001
984	0	318.498433195869	-4.4989013671875E-06	0.000152587890625
985	0.00244140625	318.522833195807	-4.39056396484375E-06	0.00258789062500001
986	0.0048828125	318.547233195746	-4.4091796875E-06	0.005035400390625
987	0.00732421875	318.571633195684	-4.2523193359375E-06	0.00749816894531249
988	0.009765625	318.596033195622	-4.2864990234375E-06	0.00991210937500001
989	0.01220703125	318.620433195561	-4.11712646484375E-06	0.01236572265625
990	0.0146484375	318.644833195499	-4.13482666015625E-06	0.014801025390625
991	0.01708984375	318.669233195438	-4.0374755859375E-06	0.0172454833984375
992	0.01953125	318.693633195376	-3.98406982421875E-06	0.019677734375
993	0.02197265625	318.718033195314	-3.94073486328125E-06	0.0221405029296875
