Index	Potential applied (V)	Time (s)	WE(1).Current (A)	WE(1).Potential (V)
1	0.00244140625	6.47694198364729	-4.28863525390625E-06	0.0025787353515625
2	0.0048828125	6.50134198358569	-4.13604736328125E-06	0.0050384521484375
3	0.00732421875	6.52574198352409	-4.13543701171875E-06	0.0074920654296875
4	0.009765625	6.55014198346248	-3.93951416015625E-06	0.009918212890625
5	0.01220703125	6.57454198340088	-3.9501953125E-06	0.012347412109375
6	0.0146484375	6.59894198333927	-3.8079833984375E-06	0.014788818359375
7	0.01708984375	6.62334198327767	-3.76068115234375E-06	0.01722412109375
8	0.01953125	6.64774198321606	-3.66363525390625E-06	0.019683837890625
9	0.02197265625	6.67214198315446	-3.55499267578125E-06	0.0221343994140625
10	0.0244140625	6.69654198309286	-3.5418701171875E-06	0.02454833984375
11	0.02685546875	6.72094198303125	-3.37738037109375E-06	0.02701416015625
12	0.029296875	6.74534198296965	-3.380126953125E-06	0.029437255859375
13	0.03173828125	6.76974198290804	-3.19854736328125E-06	0.031890869140625
14	0.0341796875	6.79414198284644	-3.20037841796875E-06	0.0342864990234375
15	0.03662109375	6.81854198278484	-3.0718994140625E-06	0.0367584228515625
16	0.0390625	6.84294198272323	-3.0230712890625E-06	0.03919677734375
17	0.04150390625	6.86734198266163	-2.940673828125E-06	0.0416473388671875
18	0.0439453125	6.89174198260002	-2.8375244140625E-06	0.0440826416015625
19	0.04638671875	6.91614198253842	-2.860107421875E-06	0.04654541015625
20	0.048828125	6.94054198247682	-2.6953125E-06	0.0489654541015625
21	0.05126953125	6.96494198241521	-2.705078125E-06	0.05133056640625
22	0.0537109375	6.98934198235361	-2.5042724609375E-06	0.053863525390625
23	0.05615234375	7.013741982292	-2.47039794921875E-06	0.056243896484375
24	0.05859375	7.0381419822304	-2.39837646484375E-06	0.058685302734375
25	0.06103515625	7.0625419821688	-2.30377197265625E-06	0.06109619140625
26	0.0634765625	7.08694198210719	-2.26776123046875E-06	0.063629150390625
27	0.06591796875	7.11134198204559	-2.1099853515625E-06	0.0660400390625
28	0.068359375	7.13574198198398	-2.13623046875E-06	0.068450927734375
29	0.07080078125	7.16014198192238	-1.94580078125E-06	0.070892333984375
30	0.0732421875	7.18454198186078	-1.966552734375E-06	0.07330322265625
31	0.07568359375	7.20894198179917	-1.78955078125E-06	0.075714111328125
32	0.078125	7.23334198173757	-1.76025390625E-06	0.078216552734375
33	0.08056640625	7.25774198167596	-1.6741943359375E-06	0.080596923828125
34	0.0830078125	7.28214198161436	-1.5576171875E-06	0.08306884765625
35	0.08544921875	7.30654198155275	-1.53717041015625E-06	0.08551025390625
36	0.087890625	7.33094198149115	-1.3604736328125E-06	0.08795166015625
37	0.09033203125	7.35534198142955	-1.36810302734375E-06	0.090423583984375
38	0.0927734375	7.37974198136794	-1.17218017578125E-06	0.092803955078125
39	0.09521484375	7.40414198130634	-1.16973876953125E-06	0.095306396484375
40	0.09765625	7.42854198124473	-1.03302001953125E-06	0.097747802734375
41	0.10009765625	7.45294198118313	-9.515380859375E-07	0.10015869140625
42	0.1025390625	7.47734198112153	-8.9111328125E-07	0.10260009765625
43	0.10498046875	7.50174198105992	-7.3211669921875E-07	0.10498046875
44	0.107421875	7.52614198099832	-7.1929931640625E-07	0.107513427734375
45	0.10986328125	7.55054198093671	-5.52978515625E-07	0.109893798828125
46	0.1123046875	7.57494198087511	-5.5572509765625E-07	0.1124267578125
47	0.11474609375	7.59934198081351	-3.973388671875E-07	0.114776611328125
48	0.1171875	7.6237419807519	-3.6212158203125E-07	0.11724853515625
49	0.11962890625	7.6481419806903	-2.09686279296875E-07	0.11968994140625
50	0.1220703125	7.67254198062869	-1.748046875E-07	0.12213134765625
51	0.12451171875	7.69694198056709	-1.08642578125E-07	0.124603271484375
52	0.126953125	7.72134198050549	1.30615234375E-08	0.127044677734375
53	0.12939453125	7.74574198044388	2.239990234375E-08	0.12945556640625
54	0.1318359375	7.77014198038228	2.44415283203125E-07	0.13189697265625
55	0.13427734375	7.79454198032067	2.05291748046875E-07	0.134246826171875
56	0.13671875	7.81894198025907	3.6468505859375E-07	0.136688232421875
57	0.13916015625	7.84334198019747	4.437255859375E-07	0.13916015625
58	0.1416015625	7.86774198013586	5.4229736328125E-07	0.141571044921875
59	0.14404296875	7.89214198007426	6.7626953125E-07	0.1439208984375
60	0.146484375	7.91654198001265	6.84814453125E-07	0.146392822265625
61	0.14892578125	7.94094197995105	8.660888671875E-07	0.14886474609375
62	0.1513671875	7.96534197988944	8.6456298828125E-07	0.151275634765625
63	0.15380859375	7.98974197982784	1.09588623046875E-06	0.15362548828125
64	0.15625	8.01414197976624	1.03240966796875E-06	0.15606689453125
65	0.15869140625	8.03854197970463	1.16943359375E-06	0.158538818359375
66	0.1611328125	8.06294197964303	1.27593994140625E-06	0.16094970703125
67	0.16357421875	8.08734197958142	1.298828125E-06	0.1634521484375
68	0.166015625	8.11174197951982	1.46881103515625E-06	0.165802001953125
69	0.16845703125	8.13614197945822	1.43341064453125E-06	0.168243408203125
70	0.1708984375	8.16054197939661	1.6802978515625E-06	0.170684814453125
71	0.17333984375	8.18494197933501	1.69464111328125E-06	0.173065185546875
72	0.17578125	8.2093419792734	1.864013671875E-06	0.175506591796875
73	0.17822265625	8.2337419792118	1.8853759765625E-06	0.177947998046875
74	0.1806640625	8.2581419791502	2.01171875E-06	0.18035888671875
75	0.18310546875	8.28254197908859	2.12921142578125E-06	0.182708740234375
76	0.185546875	8.30694197902699	2.152099609375E-06	0.1851806640625
77	0.18798828125	8.33134197896538	2.32391357421875E-06	0.18756103515625
78	0.1904296875	8.35574197890378	2.34283447265625E-06	0.1900634765625
79	0.19287109375	8.38014197884218	2.56439208984375E-06	0.192413330078125
80	0.1953125	8.40454197878057	2.56683349609375E-06	0.194854736328125
81	0.19775390625	8.42894197871897	2.74505615234375E-06	0.197235107421875
82	0.2001953125	8.45334197865736	2.76153564453125E-06	0.199676513671875
83	0.20263671875	8.47774197859576	2.9046630859375E-06	0.2021484375
84	0.205078125	8.50214197853415	3.0743408203125E-06	0.204498291015625
85	0.20751953125	8.52654197847255	3.12530517578125E-06	0.2073974609375
86	0.2099609375	8.55094197841095	3.2574462890625E-06	0.20989990234375
87	0.21240234375	8.57534197834934	3.306884765625E-06	0.212310791015625
88	0.21484375	8.59974197828774	3.575439453125E-06	0.21478271484375
89	0.21728515625	8.62414197822613	3.54217529296875E-06	0.21722412109375
90	0.2197265625	8.64854197816453	3.78814697265625E-06	0.2197265625
91	0.22216796875	8.67294197810293	3.68682861328125E-06	0.222137451171875
92	0.224609375	8.69734197804132	3.82965087890625E-06	0.224578857421875
93	0.22705078125	8.72174197797972	3.82598876953125E-06	0.22698974609375
94	0.2294921875	8.74614197791811	3.9117431640625E-06	0.229461669921875
95	0.23193359375	8.77054197785651	4.04052734375E-06	0.23187255859375
96	0.234375	8.79494197779491	4.12353515625E-06	0.2342529296875
97	0.23681640625	8.8193419777333	4.33441162109375E-06	0.2366943359375
98	0.2392578125	8.8437419776717	4.37103271484375E-06	0.23919677734375
99	0.24169921875	8.86814197761009	4.4757080078125E-06	0.241668701171875
100	0.244140625	8.89254197754849	4.581298828125E-06	0.244110107421875
101	0.24658203125	8.91694197748689	4.656982421875E-06	0.246490478515625
102	0.2490234375	8.94134197742528	4.815673828125E-06	0.24896240234375
103	0.25146484375	8.96574197736368	4.9285888671875E-06	0.2513427734375
104	0.25390625	8.99014197730207	5.1116943359375E-06	0.2537841796875
105	0.25634765625	9.01454197724047	5.0445556640625E-06	0.256195068359375
106	0.2587890625	9.03894197717887	5.255126953125E-06	0.25872802734375
107	0.26123046875	9.06334197711726	5.3314208984375E-06	0.2611083984375
108	0.263671875	9.08774197705566	5.4046630859375E-06	0.2635498046875
109	0.26611328125	9.11214197699405	5.517578125E-06	0.266021728515625
110	0.2685546875	9.13654197693245	5.67626953125E-06	0.268463134765625
111	0.27099609375	9.16094197687084	5.8502197265625E-06	0.270843505859375
112	0.2734375	9.18534197680924	5.8837890625E-06	0.27325439453125
113	0.27587890625	9.20974197674764	6.146240234375E-06	0.275787353515625
114	0.2783203125	9.23414197668603	6.1248779296875E-06	0.278167724609375
115	0.28076171875	9.25854197662443	6.3385009765625E-06	0.2806396484375
116	0.283203125	9.28294197656282	6.3690185546875E-06	0.282989501953125
117	0.28564453125	9.30734197650122	6.5704345703125E-06	0.2855224609375
118	0.2880859375	9.33174197643962	6.6253662109375E-06	0.28790283203125
119	0.29052734375	9.35614197637801	6.65283203125E-06	0.2904052734375
120	0.29296875	9.38054197631641	6.9580078125E-06	0.292877197265625
121	0.29541015625	9.4049419762548	7.0343017578125E-06	0.2952880859375
122	0.2978515625	9.4293419761932	7.159423828125E-06	0.297760009765625
123	0.30029296875	9.4537419761316	7.2601318359375E-06	0.3001708984375
124	0.302734375	9.47814197606999	7.5408935546875E-06	0.3026123046875
125	0.30517578125	9.50254197600839	7.6141357421875E-06	0.304962158203125
126	0.3076171875	9.52694197594678	7.7667236328125E-06	0.3074951171875
127	0.31005859375	9.55134197588518	7.8704833984375E-06	0.3099365234375
128	0.3125	9.57574197582358	7.9620361328125E-06	0.312347412109375
129	0.31494140625	9.60014197576197	8.2000732421875E-06	0.314788818359375
130	0.3173828125	9.62454197570037	8.1787109375E-06	0.3172607421875
131	0.31982421875	9.64894197563876	8.6669921875E-06	0.319671630859375
132	0.322265625	9.67334197557716	8.7249755859375E-06	0.3221435546875
133	0.32470703125	9.69774197551556	8.7921142578125E-06	0.3245849609375
134	0.3271484375	9.72214197545395	9.1766357421875E-06	0.3270263671875
135	0.32958984375	9.74654197539235	9.4512939453125E-06	0.329437255859375
136	0.33203125	9.77094197533074	9.6099853515625E-06	0.331878662109375
137	0.33447265625	9.79534197526914	9.613037109375E-06	0.3343505859375
138	0.3369140625	9.81974197520753	9.759521484375E-06	0.33673095703125
139	0.33935546875	9.84414197514593	9.9151611328125E-06	0.339202880859375
140	0.341796875	9.86854197508433	1.0076904296875E-05	0.341644287109375
141	0.34423828125	9.89294197502272	1.0052490234375E-05	0.344085693359375
142	0.3466796875	9.91734197496112	1.0076904296875E-05	0.346527099609375
143	0.34912109375	9.94174197489951	1.02996826171875E-05	0.34893798828125
144	0.3515625	9.96614197483791	1.04827880859375E-05	0.351470947265625
145	0.35400390625	9.99054197477631	1.068115234375E-05	0.353790283203125
146	0.3564453125	10.0149419747147	1.09222412109375E-05	0.35626220703125
147	0.35888671875	10.0393419746531	1.129150390625E-05	0.358734130859375
148	0.361328125	10.0637419745915	1.13800048828125E-05	0.36114501953125
149	0.36376953125	10.0881419745299	1.16363525390625E-05	0.363555908203125
150	0.3662109375	10.1125419744683	1.1798095703125E-05	0.366058349609375
151	0.36865234375	10.1369419744067	1.20269775390625E-05	0.368438720703125
152	0.37109375	10.1613419743451	1.22467041015625E-05	0.370880126953125
153	0.37353515625	10.1857419742835	1.23046875E-05	0.373291015625
154	0.3759765625	10.2101419742219	1.2542724609375E-05	0.375762939453125
155	0.37841796875	10.2345419741603	1.2725830078125E-05	0.378173828125
156	0.380859375	10.2589419740987	1.295166015625E-05	0.380645751953125
157	0.38330078125	10.2833419740371	1.3055419921875E-05	0.383026123046875
158	0.3857421875	10.3077419739755	1.324462890625E-05	0.385498046875
159	0.38818359375	10.3321419739138	1.35162353515625E-05	0.387969970703125
160	0.390625	10.3565419738522	1.37115478515625E-05	0.390380859375
161	0.39306640625	10.3809419737906	1.39404296875E-05	0.392852783203125
162	0.3955078125	10.405341973729	1.40533447265625E-05	0.395263671875
163	0.39794921875	10.4297419736674	1.45782470703125E-05	0.397735595703125
164	0.400390625	10.4541419736058	1.4691162109375E-05	0.400146484375
165	0.40283203125	10.4785419735442	1.505126953125E-05	0.402587890625
166	0.4052734375	10.5029419734826	1.5313720703125E-05	0.40496826171875
167	0.40771484375	10.527341973421	1.5509033203125E-05	0.407501220703125
168	0.41015625	10.5517419733594	1.59454345703125E-05	0.409881591796875
169	0.41259765625	10.5761419732978	1.60888671875E-05	0.4122314453125
170	0.4150390625	10.6005419732362	1.65740966796875E-05	0.414703369140625
171	0.41748046875	10.6249419731746	1.66717529296875E-05	0.417205810546875
172	0.419921875	10.649341973113	1.70654296875E-05	0.419647216796875
173	0.42236328125	10.6737419730514	1.7230224609375E-05	0.422027587890625
174	0.4248046875	10.6981419729898	1.76727294921875E-05	0.4244384765625
175	0.42724609375	10.7225419729282	1.7742919921875E-05	0.426910400390625
176	0.4296875	10.7469419728666	1.8206787109375E-05	0.429351806640625
177	0.43212890625	10.771341972805	1.85821533203125E-05	0.431793212890625
178	0.4345703125	10.7957419727434	1.871337890625E-05	0.4342041015625
179	0.43701171875	10.8201419726818	1.9061279296875E-05	0.4366455078125
180	0.439453125	10.8445419726202	1.95465087890625E-05	0.439056396484375
181	0.44189453125	10.8689419725586	2.01751708984375E-05	0.441497802734375
182	0.4443359375	10.893341972497	2.04071044921875E-05	0.44390869140625
183	0.44677734375	10.9177419724354	2.0941162109375E-05	0.446319580078125
184	0.44921875	10.9421419723737	2.11212158203125E-05	0.448760986328125
185	0.45166015625	10.9665419723121	2.1533203125E-05	0.451202392578125
186	0.4541015625	10.9909419722505	2.17010498046875E-05	0.45367431640625
187	0.45654296875	11.0153419721889	2.21435546875E-05	0.456085205078125
188	0.458984375	11.0397419721273	2.26470947265625E-05	0.458526611328125
189	0.46142578125	11.0641419720657	2.28607177734375E-05	0.460968017578125
190	0.4638671875	11.0885419720041	2.33245849609375E-05	0.46337890625
191	0.46630859375	11.1129419719425	2.36663818359375E-05	0.46575927734375
192	0.46875	11.1373419718809	2.39471435546875E-05	0.46820068359375
193	0.47119140625	11.1617419718193	2.4542236328125E-05	0.47064208984375
194	0.4736328125	11.1861419717577	2.55859375E-05	0.47308349609375
195	0.47607421875	11.2105419716961	2.6019287109375E-05	0.47552490234375
196	0.478515625	11.2349419716345	2.6654052734375E-05	0.47784423828125
197	0.48095703125	11.2593419715729	2.74932861328125E-05	0.480377197265625
198	0.4833984375	11.2837419715113	2.80242919921875E-05	0.48272705078125
199	0.48583984375	11.3081419714497	2.860107421875E-05	0.48516845703125
200	0.48828125	11.3325419713881	2.90496826171875E-05	0.48760986328125
201	0.49072265625	11.3569419713265	2.96142578125E-05	0.49005126953125
202	0.4931640625	11.3813419712649	3.023681640625E-05	0.492462158203125
203	0.49560546875	11.4057419712033	3.0865478515625E-05	0.4954833984375
204	0.498046875	11.4301419711417	3.18267822265625E-05	0.49786376953125
205	0.50048828125	11.4545419710801	3.24981689453125E-05	0.5003662109375
206	0.5029296875	11.4789419710185	3.32427978515625E-05	0.502838134765625
207	0.50537109375	11.5033419709569	3.397216796875E-05	0.5052490234375
208	0.5078125	11.5277419708952	3.46282958984375E-05	0.507720947265625
209	0.51025390625	11.5521419708336	3.54705810546875E-05	0.5101318359375
210	0.5126953125	11.576541970772	3.6187744140625E-05	0.512542724609375
211	0.51513671875	11.6009419707104	3.73382568359375E-05	0.515045166015625
212	0.517578125	11.6253419706488	3.812255859375E-05	0.5174560546875
213	0.52001953125	11.6497419705872	3.89190673828125E-05	0.519927978515625
214	0.5224609375	11.6741419705256	3.96331787109375E-05	0.522308349609375
215	0.52490234375	11.698541970464	4.07470703125E-05	0.5247802734375
216	0.52734375	11.7229419704024	4.173583984375E-05	0.5272216796875
217	0.52978515625	11.7473419703408	4.2803955078125E-05	0.529632568359375
218	0.5322265625	11.7717419702792	4.35272216796875E-05	0.532073974609375
219	0.53466796875	11.7961419702176	4.4464111328125E-05	0.534515380859375
220	0.537109375	11.820541970156	4.59136962890625E-05	0.5369873046875
221	0.53955078125	11.8449419700944	4.678955078125E-05	0.5394287109375
222	0.5419921875	11.8693419700328	4.84375E-05	0.54180908203125
223	0.54443359375	11.8937419699712	4.93988037109375E-05	0.5443115234375
224	0.546875	11.9181419699096	5.0628662109375E-05	0.546722412109375
225	0.54931640625	11.942541969848	5.1910400390625E-05	0.549224853515625
226	0.5517578125	11.9669419697864	5.3375244140625E-05	0.55157470703125
227	0.55419921875	11.9913419697248	5.46875E-05	0.55401611328125
228	0.556640625	12.0157419696632	5.596923828125E-05	0.556488037109375
229	0.55908203125	12.0401419696016	5.7403564453125E-05	0.558868408203125
230	0.5615234375	12.06454196954	5.8624267578125E-05	0.56134033203125
231	0.56396484375	12.0889419694784	6.0333251953125E-05	0.5638427734375
232	0.56640625	12.1133419694168	6.1798095703125E-05	0.56622314453125
233	0.56884765625	12.1377419693551	6.3934326171875E-05	0.568634033203125
234	0.5712890625	12.1621419692935	6.5521240234375E-05	0.571136474609375
235	0.57373046875	12.1865419692319	6.7596435546875E-05	0.573516845703125
236	0.576171875	12.2109419691703	6.915283203125E-05	0.576019287109375
237	0.57861328125	12.2353419691087	7.080078125E-05	0.578399658203125
238	0.5810546875	12.2597419690471	7.3028564453125E-05	0.58087158203125
239	0.58349609375	12.2841419689855	7.513427734375E-05	0.583282470703125
240	0.5859375	12.3085419689239	7.7545166015625E-05	0.58575439453125
241	0.58837890625	12.3329419688623	7.92236328125E-05	0.588134765625
242	0.5908203125	12.3573419688007	8.1451416015625E-05	0.59063720703125
243	0.59326171875	12.3817419687391	8.3770751953125E-05	0.59307861328125
244	0.595703125	12.4061419686775	8.6090087890625E-05	0.595489501953125
245	0.59814453125	12.4305419686159	8.88671875E-05	0.597930908203125
246	0.6005859375	12.4549419685543	9.1064453125E-05	0.600341796875
247	0.60302734375	12.4793419684927	9.3994140625E-05	0.602783203125
248	0.60546875	12.5037419684311	9.674072265625E-05	0.605224609375
249	0.60791015625	12.5281419683695	9.991455078125E-05	0.60772705078125
250	0.6103515625	12.5525419683079	0.000102752685546875	0.61004638671875
251	0.61279296875	12.5769419682463	0.000106201171875	0.612579345703125
252	0.615234375	12.6013419681847	0.00010931396484375	0.61492919921875
253	0.61767578125	12.6257419681231	0.000112823486328125	0.617340087890625
254	0.6201171875	12.6501419680615	0.00011651611328125	0.61981201171875
255	0.62255859375	12.6745419679999	0.000119903564453125	0.62225341796875
256	0.625	12.6989419679383	0.000123779296875	0.624664306640625
257	0.62744140625	12.7233419678766	0.000127655029296875	0.6270751953125
258	0.6298828125	12.747741967815	0.000132080078125	0.62957763671875
259	0.63232421875	12.7721419677534	0.0001361083984375	0.631988525390625
260	0.634765625	12.7965419676918	0.000140472412109375	0.634429931640625
261	0.63720703125	12.8209419676302	0.00014508056640625	0.6368408203125
262	0.6396484375	12.8453419675686	0.000150421142578125	0.6392822265625
263	0.64208984375	12.869741967507	0.000155517578125	0.641693115234375
264	0.64453125	12.8941419674454	0.00016070556640625	0.644073486328125
265	0.64697265625	12.9185419673838	0.000166229248046875	0.64654541015625
266	0.6494140625	12.9429419673222	0.000171661376953125	0.64898681640625
267	0.65185546875	12.9673419672606	0.000177642822265625	0.651397705078125
268	0.654296875	12.991741967199	0.000183807373046875	0.65380859375
269	0.65673828125	13.0161419671374	0.0001900634765625	0.65618896484375
270	0.6591796875	13.0405419670758	0.000196533203125	0.658660888671875
271	0.66162109375	13.0649419670142	0.000203399658203125	0.661102294921875
272	0.6640625	13.0893419669526	0.000210693359375	0.663421630859375
273	0.66650390625	13.113741966891	0.000218048095703125	0.665924072265625
274	0.6689453125	13.1381419668294	0.0002257080078125	0.668304443359375
275	0.67138671875	13.1625419667678	0.0002335205078125	0.6707763671875
276	0.673828125	13.1869419667062	0.00024224853515625	0.673095703125
277	0.67626953125	13.2113419666446	0.000250732421875	0.675628662109375
278	0.6787109375	13.235741966583	0.000259613037109375	0.677978515625
279	0.68115234375	13.2601419665214	0.000269073486328125	0.680419921875
280	0.68359375	13.2845419664598	0.000278717041015625	0.6827392578125
281	0.68603515625	13.3089419663982	0.000288818359375	0.68524169921875
282	0.6884765625	13.3333419663365	0.000299560546875	0.68756103515625
283	0.69091796875	13.3577419662749	0.000310302734375	0.69000244140625
284	0.693359375	13.3821419662133	0.000321197509765625	0.693145751953125
285	0.69580078125	13.4065419661517	0.000333099365234375	0.695587158203125
286	0.6982421875	13.4309419660901	0.0003450927734375	0.69805908203125
287	0.70068359375	13.4553419660285	0.000357879638671875	0.70050048828125
288	0.703125	13.4797419659669	0.00037078857421875	0.70294189453125
289	0.70556640625	13.5041419659053	0.000384521484375	0.70538330078125
290	0.7080078125	13.5285419658437	0.00039862060546875	0.707763671875
291	0.71044921875	13.5529419657821	0.00041278076171875	0.710174560546875
292	0.712890625	13.5773419657205	0.00042755126953125	0.712615966796875
293	0.71533203125	13.6017419656589	0.000443115234375	0.715057373046875
294	0.7177734375	13.6261419655973	0.00045941162109375	0.71759033203125
295	0.72021484375	13.6505419655357	0.000475860595703125	0.719970703125
296	0.72265625	13.6749419654741	0.000492919921875	0.722381591796875
297	0.72509765625	13.6993419654125	0.0005108642578125	0.72479248046875
298	0.7275390625	13.7237419653509	0.0005291748046875	0.727294921875
299	0.72998046875	13.7481419652893	0.000548095703125	0.729705810546875
300	0.732421875	13.7725419652277	0.000567626953125	0.73211669921875
301	0.73486328125	13.7969419651661	0.0005877685546875	0.734527587890625
302	0.7373046875	13.8213419651045	0.0006085205078125	0.737030029296875
303	0.73974609375	13.8457419650429	0.00062957763671875	0.739501953125
304	0.7421875	13.8701419649813	0.00065155029296875	0.74188232421875
305	0.74462890625	13.8945419649197	0.00067474365234375	0.74432373046875
306	0.7470703125	13.918941964858	0.0006976318359375	0.74676513671875
307	0.74951171875	13.9433419647964	0.00072174072265625	0.749176025390625
308	0.751953125	13.9677419647348	0.00074676513671875	0.750732421875
309	0.75439453125	13.9921419646732	0.00077239990234375	0.75408935546875
310	0.7568359375	14.0165419646116	0.00079803466796875	0.7562255859375
311	0.75927734375	14.04094196455	0.0008245849609375	0.75897216796875
312	0.76171875	14.0653419644884	0.00085296630859375	0.76141357421875
313	0.76416015625	14.0897419644268	0.0008807373046875	0.76385498046875
314	0.7666015625	14.1141419643652	0.00091033935546875	0.7659912109375
315	0.76904296875	14.1385419643036	0.00093994140625	0.7684326171875
316	0.771484375	14.162941964242	0.00097076416015625	0.7708740234375
317	0.77392578125	14.1873419641804	0.00100250244140625	0.77301025390625
318	0.7763671875	14.2117419641188	0.00103485107421875	0.77606201171875
319	0.77880859375	14.2361419640572	0.00106781005859375	0.777587890625
320	0.78125	14.2605419639956	0.00110137939453125	0.78033447265625
321	0.78369140625	14.284941963934	0.001136474609375	0.782470703125
322	0.7861328125	14.3093419638724	0.001171875	0.78521728515625
323	0.78857421875	14.3337419638108	0.00120849609375	0.78765869140625
324	0.791015625	14.3581419637492	0.0012451171875	0.789794921875
325	0.79345703125	14.3825419636876	0.00128326416015625	0.79254150390625
326	0.7958984375	14.406941963626	0.00132232666015625	0.79498291015625
327	0.79833984375	14.4313419635644	0.00136138916015625	0.79742431640625
328	0.80078125	14.4557419635028	0.00140167236328125	0.8001708984375
329	0.80322265625	14.4801419634412	0.0014422607421875	0.8026123046875
330	0.8056640625	14.5045419633796	0.0014849853515625	0.80535888671875
331	0.80810546875	14.5289419633179	0.0015277099609375	0.806884765625
332	0.810546875	14.5533419632563	0.001571044921875	0.809326171875
333	0.81298828125	14.5777419631947	0.001614990234375	0.8123779296875
334	0.8154296875	14.6021419631331	0.0016607666015625	0.8148193359375
335	0.81787109375	14.6265419630715	0.00170684814453125	0.8172607421875
336	0.8203125	14.6509419630099	0.0017535400390625	0.81939697265625
337	0.82275390625	14.6753419629483	0.0018011474609375	0.82183837890625
338	0.8251953125	14.6997419628867	0.00184906005859375	0.82427978515625
339	0.82763671875	14.7241419628251	0.0018988037109375	0.8270263671875
340	0.830078125	14.7485419627635	0.00194854736328125	0.8294677734375
341	0.83251953125	14.7729419627019	0.00199951171875	0.8319091796875
342	0.8349609375	14.7973419626403	0.00205047607421875	0.833740234375
343	0.83740234375	14.8217419625787	0.00210357666015625	0.83648681640625
344	0.83984375	14.8461419625171	0.002156982421875	0.8392333984375
345	0.84228515625	14.8705419624555	0.00221099853515625	0.84136962890625
346	0.8447265625	14.8949419623939	0.00226593017578125	0.84381103515625
347	0.84716796875	14.9193419623323	0.00232086181640625	0.84625244140625
348	0.849609375	14.9437419622707	0.0023773193359375	0.848388671875
349	0.85205078125	14.9681419622091	0.00243408203125	0.85113525390625
350	0.8544921875	14.9925419621475	0.00249267578125	0.8538818359375
351	0.85693359375	15.0169419620859	0.00255096435546875	0.85601806640625
352	0.859375	15.0413419620243	0.00261016845703125	0.85906982421875
353	0.86181640625	15.0657419619627	0.00267120361328125	0.86090087890625
354	0.8642578125	15.0901419619011	0.00273193359375	0.86395263671875
355	0.86669921875	15.1145419618394	0.0027935791015625	0.86578369140625
356	0.869140625	15.1389419617778	0.002855224609375	0.86822509765625
357	0.87158203125	15.1633419617162	0.00291839599609375	0.87066650390625
358	0.8740234375	15.1877419616546	0.002982177734375	0.87310791015625
359	0.87646484375	15.212141961593	0.00304656982421875	0.875244140625
360	0.87890625	15.2365419615314	0.00311065673828125	0.8782958984375
361	0.88134765625	15.2609419614698	0.00317596435546875	0.8807373046875
362	0.8837890625	15.2853419614082	0.00324249267578125	0.8831787109375
363	0.88623046875	15.3097419613466	0.00330810546875	0.885009765625
364	0.888671875	15.334141961285	0.00337493896484375	0.88775634765625
365	0.89111328125	15.3585419612234	0.00344085693359375	0.8905029296875
366	0.8935546875	15.3829419611618	0.0035089111328125	0.8929443359375
367	0.89599609375	15.4073419611002	0.00357666015625	0.8953857421875
368	0.8984375	15.4317419610386	0.003643798828125	0.897216796875
369	0.90087890625	15.456141960977	0.00371063232421875	0.89996337890625
370	0.9033203125	15.4805419609154	0.0037774658203125	0.90240478515625
371	0.90576171875	15.5049419608538	0.00384429931640625	0.9051513671875
372	0.908203125	15.5293419607922	0.00390869140625	0.9075927734375
373	0.91064453125	15.5537419607306	0.00397308349609375	0.90972900390625
374	0.9130859375	15.578141960669	0.00403533935546875	0.911865234375
375	0.91552734375	15.6025419606074	0.00409698486328125	0.914306640625
376	0.91796875	15.6269419605458	0.004156494140625	0.91705322265625
377	0.92041015625	15.6513419604842	0.0042138671875	0.9197998046875
378	0.9228515625	15.6757419604226	0.00426910400390625	0.92193603515625
379	0.92529296875	15.700141960361	0.0043218994140625	0.92376708984375
380	0.927734375	15.7245419602993	0.00437347412109375	0.92742919921875
381	0.93017578125	15.7489419602377	0.0044219970703125	0.9295654296875
382	0.9326171875	15.7733419601761	0.004468994140625	0.931396484375
383	0.93505859375	15.7977419601145	0.00451324462890625	0.93414306640625
384	0.9375	15.8221419600529	0.00455657958984375	0.9368896484375
385	0.93994140625	15.8465419599913	0.00459808349609375	0.9393310546875
386	0.9423828125	15.8709419599297	0.00463714599609375	0.941162109375
387	0.94482421875	15.8953419598681	0.0046746826171875	0.94390869140625
388	0.947265625	15.9197419598065	0.00471038818359375	0.946044921875
389	0.94970703125	15.9441419597449	0.0047454833984375	0.9490966796875
390	0.9521484375	15.9685419596833	0.00477874755859375	0.950927734375
391	0.95458984375	15.9929419596217	0.00481109619140625	0.95367431640625
392	0.95703125	16.0173419595601	0.00484161376953125	0.955810546875
393	0.95947265625	16.0417419594985	0.00487152099609375	0.9588623046875
394	0.9619140625	16.0661419594369	0.0049005126953125	0.9613037109375
395	0.96435546875	16.0905419593753	0.004927978515625	0.963134765625
396	0.966796875	16.1149419593137	0.004954833984375	0.9661865234375
397	0.96923828125	16.1393419592521	0.0049810791015625	0.968017578125
398	0.9716796875	16.1637419591905	0.00500640869140625	0.97076416015625
399	0.97412109375	16.1881419591289	0.0050311279296875	0.97381591796875
400	0.9765625	16.2125419590673	0.00505523681640625	0.975341796875
401	0.97900390625	16.2369419590057	0.005078125	0.97808837890625
402	0.9814453125	16.2613419589441	0.00510101318359375	0.98114013671875
403	0.98388671875	16.2857419588825	0.00512298583984375	0.98297119140625
404	0.986328125	16.3101419588209	0.00514434814453125	0.98541259765625
405	0.98876953125	16.3345419587592	0.0051654052734375	0.98846435546875
406	0.9912109375	16.3589419586976	0.005185546875	0.989990234375
407	0.99365234375	16.383341958636	0.00520599365234375	0.99273681640625
408	0.99609375	16.4077419585744	0.0052252197265625	0.9954833984375
409	0.99853515625	16.4321419585128	0.00524444580078125	0.99761962890625
410	1.0009765625	16.4565419584512	0.0052630615234375	1.0003662109375
411	1.00341796875	16.4809419583896	0.00528167724609375	1.00250244140625
412	1.005859375	16.505341958328	0.0052996826171875	1.00494384765625
413	1.00830078125	16.5297419582664	0.0053173828125	1.00799560546875
414	1.0107421875	16.5541419582048	0.00533447265625	1.00982666015625
415	1.01318359375	16.5785419581432	0.0053515625	1.011962890625
416	1.015625	16.6029419580816	0.00536834716796875	1.01531982421875
417	1.01806640625	16.62734195802	0.005384521484375	1.01715087890625
418	1.0205078125	16.6517419579584	0.00540069580078125	1.01898193359375
419	1.02294921875	16.6761419578968	0.005416259765625	1.021728515625
420	1.025390625	16.7005419578352	0.00543182373046875	1.024169921875
421	1.02783203125	16.7249419577736	0.0054473876953125	1.02691650390625
422	1.0302734375	16.749341957712	0.00546234130859375	1.0296630859375
423	1.03271484375	16.7737419576504	0.00547698974609375	1.03179931640625
424	1.03515625	16.7981419575888	0.0054913330078125	1.03363037109375
425	1.03759765625	16.8225419575272	0.0055059814453125	1.03668212890625
426	1.0400390625	16.8469419574656	0.00552001953125	1.03912353515625
427	1.04248046875	16.871341957404	0.0055340576171875	1.0418701171875
428	1.044921875	16.8957419573424	0.0055474853515625	1.0443115234375
429	1.04736328125	16.9201419572807	0.00556121826171875	1.046142578125
430	1.0498046875	16.9445419572191	0.00557464599609375	1.048583984375
431	1.05224609375	16.9689419571575	0.0055877685546875	1.05133056640625
432	1.0546875	16.9933419570959	0.00560089111328125	1.0540771484375
433	1.05712890625	17.0177419570343	0.0056134033203125	1.055908203125
434	1.0595703125	17.0421419569727	0.005626220703125	1.058349609375
435	1.06201171875	17.0665419569111	0.00563873291015625	1.060791015625
436	1.064453125	17.0909419568495	0.00565093994140625	1.0638427734375
437	1.06689453125	17.1153419567879	0.00566314697265625	1.06597900390625
438	1.0693359375	17.1397419567263	0.005675048828125	1.068115234375
439	1.07177734375	17.1641419566647	0.005687255859375	1.070556640625
440	1.07421875	17.1885419566031	0.0056988525390625	1.072998046875
441	1.07666015625	17.2129419565415	0.00571044921875	1.075439453125
442	1.0791015625	17.2373419564799	0.0057220458984375	1.0784912109375
443	1.08154296875	17.2617419564183	0.00573333740234375	1.08062744140625
444	1.083984375	17.2861419563567	0.00574462890625	1.08306884765625
445	1.08642578125	17.3105419562951	0.005755615234375	1.08551025390625
446	1.0888671875	17.3349419562335	0.0057666015625	1.08856201171875
447	1.09130859375	17.3593419561719	0.005777587890625	1.0906982421875
448	1.09375	17.3837419561103	0.00578826904296875	1.0931396484375
449	1.09619140625	17.4081419560487	0.0057989501953125	1.09527587890625
450	1.0986328125	17.4325419559871	0.00580963134765625	1.097412109375
451	1.10107421875	17.4569419559255	0.00582000732421875	1.099853515625
452	1.103515625	17.4813419558639	0.00583038330078125	1.102294921875
453	1.10595703125	17.5057419558023	0.00584075927734375	1.104736328125
454	1.1083984375	17.5301419557406	0.005850830078125	1.10748291015625
455	1.11083984375	17.554541955679	0.00586090087890625	1.10992431640625
456	1.11328125	17.5789419556174	0.00587066650390625	1.112060546875
457	1.11572265625	17.6033419555558	0.0058807373046875	1.114501953125
458	1.1181640625	17.6277419554942	0.0058905029296875	1.11724853515625
459	1.12060546875	17.6521419554326	0.0059002685546875	1.11968994140625
460	1.123046875	17.676541955371	0.00590972900390625	1.12152099609375
461	1.12548828125	17.7009419553094	0.005919189453125	1.124267578125
462	1.1279296875	17.7253419552478	0.005928955078125	1.12640380859375
463	1.13037109375	17.7497419551862	0.0059381103515625	1.129150390625
464	1.1328125	17.7741419551246	0.00594757080078125	1.13189697265625
465	1.13525390625	17.798541955063	0.00595672607421875	1.13433837890625
466	1.1376953125	17.8229419550014	0.00596588134765625	1.136474609375
467	1.14013671875	17.8473419549398	0.00597503662109375	1.13922119140625
468	1.142578125	17.8717419548782	0.00598388671875	1.1419677734375
469	1.14501953125	17.8961419548166	0.0059930419921875	1.14410400390625
470	1.1474609375	17.920541954755	0.00600189208984375	1.146240234375
471	1.14990234375	17.9449419546934	0.0060107421875	1.14837646484375
472	1.15234375	17.9693419546318	0.006019287109375	1.1517333984375
473	1.15478515625	17.9937419545702	0.00602783203125	1.153564453125
474	1.1572265625	18.0181419545086	0.006036376953125	1.1566162109375
475	1.15966796875	18.042541954447	0.006044921875	1.158447265625
476	1.162109375	18.0669419543854	0.006053466796875	1.16119384765625
477	1.16455078125	18.0913419543238	0.00606201171875	1.163330078125
478	1.1669921875	18.1157419542621	0.00607025146484375	1.165771484375
479	1.16943359375	18.1401419542005	0.0060784912109375	1.1688232421875
480	1.171875	18.1645419541389	0.00608673095703125	1.170654296875
481	1.17431640625	18.1889419540773	0.006094970703125	1.173095703125
482	1.1767578125	18.2133419540157	0.0061029052734375	1.175537109375
483	1.17919921875	18.2377419539541	0.00611114501953125	1.17889404296875
484	1.181640625	18.2621419538925	0.00611907958984375	1.18072509765625
485	1.18408203125	18.2865419538309	0.00612701416015625	1.18316650390625
486	1.1865234375	18.3109419537693	0.00613494873046875	1.185302734375
487	1.18896484375	18.3353419537077	0.00614288330078125	1.187744140625
488	1.19140625	18.3597419536461	0.0061505126953125	1.190185546875
489	1.19384765625	18.3841419535845	0.006158447265625	1.192626953125
490	1.1962890625	18.4085419535229	0.00616607666015625	1.19476318359375
491	1.19873046875	18.4329419534613	0.0061737060546875	1.19781494140625
492	1.201171875	18.4573419533997	0.00618133544921875	1.2005615234375
493	1.19873046875	18.4817419533381	0.0061688232421875	1.19781494140625
494	1.1962890625	18.5061419532765	0.00615631103515625	1.195068359375
495	1.19384765625	18.5305419532149	0.006143798828125	1.19293212890625
496	1.19140625	18.5549419531533	0.00613067626953125	1.190185546875
497	1.18896484375	18.5793419530917	0.00611785888671875	1.187744140625
498	1.1865234375	18.6037419530301	0.006104736328125	1.185302734375
499	1.18408203125	18.6281419529685	0.0060919189453125	1.182861328125
500	1.181640625	18.6525419529069	0.0060784912109375	1.180419921875
501	1.17919921875	18.6769419528453	0.0060650634765625	1.177978515625
502	1.1767578125	18.7013419527837	0.00605133056640625	1.175537109375
503	1.17431640625	18.725741952722	0.00603790283203125	1.173095703125
504	1.171875	18.7501419526604	0.00602386474609375	1.170654296875
505	1.16943359375	18.7745419525988	0.00600982666015625	1.1688232421875
506	1.1669921875	18.7989419525372	0.00599578857421875	1.16546630859375
507	1.16455078125	18.8233419524756	0.0059814453125	1.16363525390625
508	1.162109375	18.847741952414	0.00596710205078125	1.160888671875
509	1.15966796875	18.8721419523524	0.00595245361328125	1.158447265625
510	1.1572265625	18.8965419522908	0.0059375	1.15631103515625
511	1.15478515625	18.9209419522292	0.00592254638671875	1.15447998046875
512	1.15234375	18.9453419521676	0.00590728759765625	1.15142822265625
513	1.14990234375	18.969741952106	0.00589202880859375	1.148681640625
514	1.1474609375	18.9941419520444	0.00587646484375	1.14593505859375
515	1.14501953125	19.0185419519828	0.005860595703125	1.14349365234375
516	1.142578125	19.0429419519212	0.0058447265625	1.141357421875
517	1.14013671875	19.0673419518596	0.00582855224609375	1.1395263671875
518	1.1376953125	19.091741951798	0.00581207275390625	1.13677978515625
519	1.13525390625	19.1161419517364	0.0057952880859375	1.13433837890625
520	1.1328125	19.1405419516748	0.00577850341796875	1.13250732421875
521	1.13037109375	19.1649419516132	0.00576141357421875	1.129150390625
522	1.1279296875	19.1893419515516	0.00574371337890625	1.12701416015625
523	1.12548828125	19.21374195149	0.00572601318359375	1.124267578125
524	1.123046875	19.2381419514284	0.0057080078125	1.12152099609375
525	1.12060546875	19.2625419513668	0.00569000244140625	1.11968994140625
526	1.1181640625	19.2869419513052	0.00567138671875	1.11724853515625
527	1.11572265625	19.3113419512435	0.00565216064453125	1.11480712890625
528	1.11328125	19.3357419511819	0.0056329345703125	1.112060546875
529	1.11083984375	19.3601419511203	0.0056134033203125	1.109619140625
530	1.1083984375	19.3845419510587	0.00559356689453125	1.10748291015625
531	1.10595703125	19.4089419509971	0.0055731201171875	1.10504150390625
532	1.103515625	19.4333419509355	0.0055523681640625	1.10198974609375
533	1.10107421875	19.4577419508739	0.00553131103515625	1.10015869140625
534	1.0986328125	19.4821419508123	0.0055096435546875	1.09771728515625
535	1.09619140625	19.5065419507507	0.0054876708984375	1.09527587890625
536	1.09375	19.5309419506891	0.005465087890625	1.09283447265625
537	1.09130859375	19.5553419506275	0.00544189453125	1.09039306640625
538	1.0888671875	19.5797419505659	0.00541839599609375	1.08795166015625
539	1.08642578125	19.6041419505043	0.005394287109375	1.0858154296875
540	1.083984375	19.6285419504427	0.00536956787109375	1.08306884765625
541	1.08154296875	19.6529419503811	0.00534423828125	1.080322265625
542	1.0791015625	19.6773419503195	0.0053179931640625	1.07818603515625
543	1.07666015625	19.7017419502579	0.0052911376953125	1.075439453125
544	1.07421875	19.7261419501963	0.005263671875	1.072998046875
545	1.07177734375	19.7505419501347	0.00523529052734375	1.0711669921875
546	1.0693359375	19.7749419500731	0.00520599365234375	1.06781005859375
547	1.06689453125	19.7993419500115	0.00517547607421875	1.0662841796875
548	1.064453125	19.8237419499499	0.0051446533203125	1.0638427734375
549	1.06201171875	19.8481419498883	0.0051123046875	1.06109619140625
550	1.0595703125	19.8725419498267	0.0050787353515625	1.0589599609375
551	1.05712890625	19.8969419497651	0.0050439453125	1.05621337890625
552	1.0546875	19.9213419497034	0.00500762939453125	1.053466796875
553	1.05224609375	19.9457419496418	0.0049700927734375	1.051025390625
554	1.0498046875	19.9701419495802	0.00493072509765625	1.048583984375
555	1.04736328125	19.9945419495186	0.0048895263671875	1.04644775390625
556	1.044921875	20.018941949457	0.00484619140625	1.043701171875
557	1.04248046875	20.0433419493954	0.00480133056640625	1.0418701171875
558	1.0400390625	20.0677419493338	0.00475372314453125	1.0394287109375
559	1.03759765625	20.0921419492722	0.004703369140625	1.036376953125
560	1.03515625	20.1165419492106	0.004649658203125	1.033935546875
561	1.03271484375	20.140941949149	0.004593505859375	1.0321044921875
562	1.0302734375	20.1653419490874	0.00453369140625	1.02935791015625
563	1.02783203125	20.1897419490258	0.00446990966796875	1.02691650390625
564	1.025390625	20.2141419489642	0.00440216064453125	1.0247802734375
565	1.02294921875	20.2385419489026	0.00433074951171875	1.02142333984375
566	1.0205078125	20.262941948841	0.00425567626953125	1.019287109375
567	1.01806640625	20.2873419487794	0.004176025390625	1.016845703125
568	1.015625	20.3117419487178	0.00409271240234375	1.0150146484375
569	1.01318359375	20.3361419486562	0.00400543212890625	1.011962890625
570	1.0107421875	20.3605419485946	0.0039166259765625	1.00982666015625
571	1.00830078125	20.384941948533	0.00382598876953125	1.00738525390625
572	1.005859375	20.4093419484714	0.00373382568359375	1.00494384765625
573	1.00341796875	20.4337419484098	0.003641357421875	1.0028076171875
574	1.0009765625	20.4581419483482	0.003548583984375	1.0003662109375
575	0.99853515625	20.4825419482866	0.00345703125	0.99700927734375
576	0.99609375	20.5069419482249	0.0033660888671875	0.99517822265625
577	0.99365234375	20.5313419481633	0.00327606201171875	0.99273681640625
578	0.9912109375	20.5557419481017	0.00318695068359375	0.99090576171875
579	0.98876953125	20.5801419480401	0.00309967041015625	0.98724365234375
580	0.986328125	20.6045419479785	0.003013916015625	0.9857177734375
581	0.98388671875	20.6289419479169	0.00292999267578125	0.9832763671875
582	0.9814453125	20.6533419478553	0.0028472900390625	0.980224609375
583	0.97900390625	20.6777419477937	0.00276580810546875	0.9783935546875
584	0.9765625	20.7021419477321	0.002686767578125	0.9759521484375
585	0.97412109375	20.7265419476705	0.0026092529296875	0.97320556640625
586	0.9716796875	20.7509419476089	0.0025335693359375	0.9710693359375
587	0.96923828125	20.7753419475473	0.00245941162109375	0.96832275390625
588	0.966796875	20.7997419474857	0.0023870849609375	0.965576171875
589	0.96435546875	20.8241419474241	0.0023175048828125	0.963134765625
590	0.9619140625	20.8485419473625	0.00224853515625	0.9613037109375
591	0.95947265625	20.8729419473009	0.00218170166015625	0.95855712890625
592	0.95703125	20.8973419472393	0.0021160888671875	0.955810546875
593	0.95458984375	20.9217419471777	0.0020526123046875	0.95367431640625
594	0.9521484375	20.9461419471161	0.00199127197265625	0.95123291015625
595	0.94970703125	20.9705419470545	0.00193115234375	0.94879150390625
596	0.947265625	20.9949419469929	0.00187255859375	0.94635009765625
597	0.94482421875	21.0193419469313	0.00181610107421875	0.943603515625
598	0.9423828125	21.0437419468697	0.00176116943359375	0.94146728515625
599	0.93994140625	21.0681419468081	0.001707763671875	0.93902587890625
600	0.9375	21.0925419467465	0.0016558837890625	0.93658447265625
601	0.93505859375	21.1169419466848	0.00160491943359375	0.933837890625
602	0.9326171875	21.1413419466232	0.00155670166015625	0.93170166015625
603	0.93017578125	21.1657419465616	0.0015093994140625	0.92926025390625
604	0.927734375	21.1901419465	0.001463623046875	0.9271240234375
605	0.92529296875	21.2145419464384	0.001419677734375	0.9246826171875
606	0.9228515625	21.2389419463768	0.001376953125	0.92193603515625
607	0.92041015625	21.2633419463152	0.00133575439453125	0.9197998046875
608	0.91796875	21.2877419462536	0.0012957763671875	0.916748046875
609	0.91552734375	21.312141946192	0.00125732421875	0.91522216796875
610	0.9130859375	21.3365419461304	0.00121978759765625	0.91217041015625
611	0.91064453125	21.3609419460688	0.00118408203125	0.90972900390625
612	0.908203125	21.3853419460072	0.00114959716796875	0.9075927734375
613	0.90576171875	21.4097419459456	0.00111602783203125	0.90484619140625
614	0.9033203125	21.434141945884	0.001083984375	0.90240478515625
615	0.90087890625	21.4585419458224	0.00105224609375	0.89996337890625
616	0.8984375	21.4829419457608	0.0010223388671875	0.89691162109375
617	0.89599609375	21.5073419456992	0.0009930419921875	0.894775390625
618	0.8935546875	21.5317419456376	0.00096527099609375	0.892333984375
619	0.89111328125	21.556141945576	0.00093841552734375	0.889892578125
620	0.888671875	21.5805419455144	0.0009124755859375	0.8880615234375
621	0.88623046875	21.6049419454528	0.00088714599609375	0.885009765625
622	0.8837890625	21.6293419453912	0.00086273193359375	0.8831787109375
623	0.88134765625	21.6537419453296	0.00083984375	0.880126953125
624	0.87890625	21.678141945268	0.0008172607421875	0.8782958984375
625	0.87646484375	21.7025419452063	0.00079559326171875	0.87554931640625
626	0.8740234375	21.7269419451447	0.000775146484375	0.8734130859375
627	0.87158203125	21.7513419450831	0.00075439453125	0.87066650390625
628	0.869140625	21.7757419450215	0.00073516845703125	0.86883544921875
629	0.86669921875	21.8001419449599	0.000716552734375	0.865478515625
630	0.8642578125	21.8245419448983	0.00069854736328125	0.8636474609375
631	0.86181640625	21.8489419448367	0.00068084716796875	0.8612060546875
632	0.859375	21.8733419447751	0.00066375732421875	0.85845947265625
633	0.85693359375	21.8977419447135	0.00064727783203125	0.8563232421875
634	0.8544921875	21.9221419446519	0.0006317138671875	0.8538818359375
635	0.85205078125	21.9465419445903	0.0006170654296875	0.8514404296875
636	0.849609375	21.9709419445287	0.00060211181640625	0.84869384765625
637	0.84716796875	21.9953419444671	0.00058807373046875	0.845947265625
638	0.8447265625	22.0197419444055	0.00057403564453125	0.84381103515625
639	0.84228515625	22.0441419443439	0.0005609130859375	0.84136962890625
640	0.83984375	22.0685419442823	0.0005474853515625	0.8392333984375
641	0.83740234375	22.0929419442207	0.00053497314453125	0.83648681640625
642	0.8349609375	22.1173419441591	0.00052276611328125	0.833740234375
643	0.83251953125	22.1417419440975	0.000511474609375	0.831298828125
644	0.830078125	22.1661419440359	0.00050048828125	0.82916259765625
645	0.82763671875	22.1905419439743	0.000488922119140625	0.8270263671875
646	0.8251953125	22.2149419439127	0.0004786376953125	0.82366943359375
647	0.82275390625	22.2393419438511	0.000468292236328125	0.82183837890625
648	0.8203125	22.2637419437895	0.00045794677734375	0.8197021484375
649	0.81787109375	22.2881419437279	0.00044805908203125	0.8172607421875
650	0.8154296875	22.3125419436662	0.0004378662109375	0.81451416015625
651	0.81298828125	22.3369419436046	0.000429046630859375	0.81207275390625
652	0.810546875	22.361341943543	0.00042010498046875	0.809326171875
653	0.80810546875	22.3857419434814	0.000411102294921875	0.8074951171875
654	0.8056640625	22.4101419434198	0.00040234375	0.804443359375
655	0.80322265625	22.4345419433582	0.0003944091796875	0.80291748046875
656	0.80078125	22.4589419432966	0.000386260986328125	0.8001708984375
657	0.79833984375	22.483341943235	0.000378173828125	0.79742431640625
658	0.7958984375	22.5077419431734	0.000370819091796875	0.7952880859375
659	0.79345703125	22.5321419431118	0.000362945556640625	0.79254150390625
660	0.791015625	22.5565419430502	0.000355316162109375	0.789794921875
661	0.78857421875	22.5809419429886	0.000348114013671875	0.78765869140625
662	0.7861328125	22.605341942927	0.000341644287109375	0.784912109375
663	0.78369140625	22.6297419428654	0.00033392333984375	0.78216552734375
664	0.78125	22.6541419428038	0.000327392578125	0.7806396484375
665	0.77880859375	22.6785419427422	0.000321258544921875	0.7781982421875
666	0.7763671875	22.7029419426806	0.00031451416015625	0.77545166015625
667	0.77392578125	22.727341942619	0.00030816650390625	0.77362060546875
668	0.771484375	22.7517419425574	0.0003018798828125	0.7708740234375
669	0.76904296875	22.7761419424958	0.0002957763671875	0.76812744140625
670	0.7666015625	22.8005419424342	0.00029034423828125	0.76629638671875
671	0.76416015625	22.8249419423726	0.00028424072265625	0.76324462890625
672	0.76171875	22.849341942311	0.000278778076171875	0.76141357421875
673	0.75927734375	22.8737419422494	0.00027325439453125	0.758056640625
674	0.7568359375	22.8981419421877	0.000267913818359375	0.7568359375
675	0.75439453125	22.9225419421261	0.000262481689453125	0.7537841796875
676	0.751953125	22.9469419420645	0.000257049560546875	0.7513427734375
677	0.74951171875	22.9713419420029	0.000251983642578125	0.749237060546875
678	0.7470703125	22.9957419419413	0.000246826171875	0.746856689453125
679	0.74462890625	23.0201419418797	0.000241851806640625	0.744415283203125
680	0.7421875	23.0445419418181	0.00023712158203125	0.741973876953125
681	0.73974609375	23.0689419417565	0.000232513427734375	0.73956298828125
682	0.7373046875	23.0933419416949	0.000227874755859375	0.737060546875
683	0.73486328125	23.1177419416333	0.000223236083984375	0.73468017578125
684	0.732421875	23.1421419415717	0.00021844482421875	0.73223876953125
685	0.72998046875	23.1665419415101	0.00021417236328125	0.729766845703125
686	0.7275390625	23.1909419414485	0.000209747314453125	0.727325439453125
687	0.72509765625	23.2153419413869	0.000205657958984375	0.724853515625
688	0.72265625	23.2397419413253	0.000201446533203125	0.722442626953125
689	0.72021484375	23.2641419412637	0.0001971435546875	0.72003173828125
690	0.7177734375	23.2885419412021	0.000193511962890625	0.717559814453125
691	0.71533203125	23.3129419411405	0.0001895751953125	0.71514892578125
692	0.712890625	23.3373419410789	0.000185791015625	0.712677001953125
693	0.71044921875	23.3617419410173	0.000181793212890625	0.71026611328125
694	0.7080078125	23.3861419409557	0.00017803955078125	0.707794189453125
695	0.70556640625	23.4105419408941	0.00017437744140625	0.705322265625
696	0.703125	23.4349419408325	0.00017071533203125	0.702880859375
697	0.70068359375	23.4593419407709	0.00016741943359375	0.70050048828125
698	0.6982421875	23.4837419407093	0.000163787841796875	0.697998046875
699	0.69580078125	23.5081419406476	0.000160400390625	0.6956787109375
700	0.693359375	23.532541940586	0.00015704345703125	0.693145751953125
701	0.69091796875	23.5569419405244	0.00015386962890625	0.690704345703125
702	0.6884765625	23.5813419404628	0.0001507568359375	0.68829345703125
703	0.68603515625	23.6057419404012	0.000147857666015625	0.685882568359375
704	0.68359375	23.6301419403396	0.000144317626953125	0.68341064453125
705	0.68115234375	23.654541940278	0.00014141845703125	0.68096923828125
706	0.6787109375	23.6789419402164	0.00013818359375	0.678497314453125
707	0.67626953125	23.7033419401548	0.000135406494140625	0.676116943359375
708	0.673828125	23.7277419400932	0.0001326904296875	0.6737060546875
709	0.67138671875	23.7521419400316	0.000130096435546875	0.67120361328125
710	0.6689453125	23.77654193997	0.000127105712890625	0.66876220703125
711	0.66650390625	23.8009419399084	0.00012408447265625	0.66632080078125
712	0.6640625	23.8253419398468	0.00012164306640625	0.663970947265625
713	0.66162109375	23.8497419397852	0.000118988037109375	0.66143798828125
714	0.6591796875	23.8741419397236	0.0001163330078125	0.659027099609375
715	0.65673828125	23.898541939662	0.00011395263671875	0.65655517578125
716	0.654296875	23.9229419396004	0.0001114501953125	0.654144287109375
717	0.65185546875	23.9473419395388	0.000109161376953125	0.651702880859375
718	0.6494140625	23.9717419394772	0.000106658935546875	0.649261474609375
719	0.64697265625	23.9961419394156	0.00010443115234375	0.646820068359375
720	0.64453125	24.020541939354	0.000102081298828125	0.6444091796875
721	0.64208984375	24.0449419392924	0.00010003662109375	0.6419677734375
722	0.6396484375	24.0693419392308	9.7991943359375E-05	0.6395263671875
723	0.63720703125	24.0937419391691	9.5794677734375E-05	0.637176513671875
724	0.634765625	24.1181419391075	9.3719482421875E-05	0.63458251953125
725	0.63232421875	24.1425419390459	9.1644287109375E-05	0.6322021484375
726	0.6298828125	24.1669419389843	8.984375E-05	0.629791259765625
727	0.62744140625	24.1913419389227	8.746337890625E-05	0.62713623046875
728	0.625	24.2157419388611	8.587646484375E-05	0.624755859375
729	0.62255859375	24.2401419387995	8.3740234375E-05	0.622406005859375
730	0.6201171875	24.2645419387379	8.2061767578125E-05	0.61993408203125
731	0.61767578125	24.2889419386763	8.0169677734375E-05	0.617431640625
732	0.615234375	24.3133419386147	7.8521728515625E-05	0.614959716796875
733	0.61279296875	24.3377419385531	7.6690673828125E-05	0.612548828125
734	0.6103515625	24.3621419384915	7.470703125E-05	0.61016845703125
735	0.60791015625	24.3865419384299	7.32421875E-05	0.60772705078125
736	0.60546875	24.4109419383683	7.1441650390625E-05	0.60528564453125
737	0.60302734375	24.4353419383067	6.9854736328125E-05	0.60284423828125
738	0.6005859375	24.4597419382451	6.842041015625E-05	0.600372314453125
739	0.59814453125	24.4841419381835	6.70166015625E-05	0.59796142578125
740	0.595703125	24.5085419381219	6.536865234375E-05	0.5955810546875
741	0.59326171875	24.5329419380603	6.390380859375E-05	0.593109130859375
742	0.5908203125	24.5573419379987	6.2835693359375E-05	0.59063720703125
743	0.58837890625	24.5817419379371	6.1248779296875E-05	0.58819580078125
744	0.5859375	24.6061419378755	6.0150146484375E-05	0.585723876953125
745	0.58349609375	24.6305419378139	5.853271484375E-05	0.58331298828125
746	0.5810546875	24.6549419377523	5.72509765625E-05	0.580841064453125
747	0.57861328125	24.6793419376907	5.60302734375E-05	0.578399658203125
748	0.576171875	24.703741937629	5.4901123046875E-05	0.576080322265625
749	0.57373046875	24.7281419375674	5.3466796875E-05	0.5736083984375
750	0.5712890625	24.7525419375058	5.2398681640625E-05	0.571136474609375
751	0.56884765625	24.7769419374442	5.1239013671875E-05	0.5687255859375
752	0.56640625	24.8013419373826	4.998779296875E-05	0.56622314453125
753	0.56396484375	24.825741937321	4.8968505859375E-05	0.56378173828125
754	0.5615234375	24.8501419372594	4.77752685546875E-05	0.561431884765625
755	0.55908203125	24.8745419371978	4.6722412109375E-05	0.558929443359375
756	0.556640625	24.8989419371362	4.5806884765625E-05	0.5565185546875
757	0.55419921875	24.9233419370746	4.49432373046875E-05	0.5540771484375
758	0.5517578125	24.947741937013	4.395751953125E-05	0.55157470703125
759	0.54931640625	24.9721419369514	4.28192138671875E-05	0.54913330078125
760	0.546875	24.9965419368898	4.19219970703125E-05	0.546722412109375
761	0.54443359375	25.0209419368282	4.1015625E-05	0.544281005859375
762	0.5419921875	25.0453419367666	4.0008544921875E-05	0.541839599609375
763	0.53955078125	25.069741936705	3.9080810546875E-05	0.539337158203125
764	0.537109375	25.0941419366434	3.83209228515625E-05	0.536956787109375
765	0.53466796875	25.1185419365818	3.73382568359375E-05	0.5345458984375
766	0.5322265625	25.1429419365202	3.663330078125E-05	0.5321044921875
767	0.52978515625	25.1673419364586	3.58306884765625E-05	0.529632568359375
768	0.52734375	25.191741936397	3.50372314453125E-05	0.5272216796875
769	0.52490234375	25.2161419363354	3.42620849609375E-05	0.524810791015625
770	0.5224609375	25.2405419362738	3.33343505859375E-05	0.522308349609375
771	0.52001953125	25.2649419362122	3.2879638671875E-05	0.519927978515625
772	0.517578125	25.2893419361505	3.21807861328125E-05	0.51751708984375
773	0.51513671875	25.3137419360889	3.14117431640625E-05	0.514984130859375
774	0.5126953125	25.3381419360273	3.06549072265625E-05	0.512603759765625
775	0.51025390625	25.3625419359657	3.01666259765625E-05	0.510162353515625
776	0.5078125	25.3869419359041	2.95013427734375E-05	0.507659912109375
777	0.50537109375	25.4113419358425	2.86865234375E-05	0.505279541015625
778	0.5029296875	25.4357419357809	2.8375244140625E-05	0.5028076171875
779	0.50048828125	25.4601419357193	2.7667236328125E-05	0.5003662109375
780	0.498046875	25.4845419356577	2.7398681640625E-05	0.4979248046875
781	0.49560546875	25.5089419355961	2.67333984375E-05	0.49560546875
782	0.4931640625	25.5333419355345	2.598876953125E-05	0.493011474609375
783	0.49072265625	25.5577419354729	2.557373046875E-05	0.49066162109375
784	0.48828125	25.5821419354113	2.49237060546875E-05	0.48822021484375
785	0.48583984375	25.6065419353497	2.46246337890625E-05	0.485748291015625
786	0.4833984375	25.6309419352881	2.40264892578125E-05	0.48333740234375
787	0.48095703125	25.6553419352265	2.34893798828125E-05	0.48089599609375
788	0.478515625	25.6797419351649	2.29156494140625E-05	0.47845458984375
789	0.47607421875	25.7041419351033	2.27569580078125E-05	0.475982666015625
790	0.4736328125	25.7285419350417	2.22564697265625E-05	0.473602294921875
791	0.47119140625	25.7529419349801	2.19482421875E-05	0.471099853515625
792	0.46875	25.7773419349185	2.1685791015625E-05	0.468658447265625
793	0.46630859375	25.8017419348569	2.1221923828125E-05	0.466217041015625
794	0.4638671875	25.8261419347953	2.07611083984375E-05	0.463775634765625
795	0.46142578125	25.8505419347337	2.0135498046875E-05	0.461334228515625
796	0.458984375	25.8749419346721	1.99066162109375E-05	0.4588623046875
797	0.45654296875	25.8993419346104	1.93695068359375E-05	0.45648193359375
798	0.4541015625	25.9237419345488	1.91192626953125E-05	0.45404052734375
799	0.45166015625	25.9481419344872	1.86370849609375E-05	0.45159912109375
800	0.44921875	25.9725419344256	1.83837890625E-05	0.44915771484375
801	0.44677734375	25.996941934364	1.80938720703125E-05	0.44671630859375
802	0.4443359375	26.0213419343024	1.7626953125E-05	0.444244384765625
803	0.44189453125	26.0457419342408	1.7413330078125E-05	0.44189453125
804	0.439453125	26.0701419341792	1.705322265625E-05	0.439361572265625
805	0.43701171875	26.0945419341176	1.68304443359375E-05	0.436920166015625
806	0.4345703125	26.118941934056	1.65191650390625E-05	0.434478759765625
807	0.43212890625	26.1433419339944	1.6217041015625E-05	0.43206787109375
808	0.4296875	26.1677419339328	1.5948486328125E-05	0.42962646484375
809	0.42724609375	26.1921419338712	1.56951904296875E-05	0.427215576171875
810	0.4248046875	26.2165419338096	1.556396484375E-05	0.42474365234375
811	0.42236328125	26.240941933748	1.48773193359375E-05	0.422271728515625
812	0.419921875	26.2653419336864	1.483154296875E-05	0.419921875
813	0.41748046875	26.2897419336248	1.45233154296875E-05	0.417449951171875
814	0.4150390625	26.3141419335632	1.42578125E-05	0.41497802734375
815	0.41259765625	26.3385419335016	1.39434814453125E-05	0.41253662109375
816	0.41015625	26.36294193344	1.3677978515625E-05	0.41009521484375
817	0.40771484375	26.3873419333784	1.34552001953125E-05	0.40771484375
818	0.4052734375	26.4117419333168	1.33575439453125E-05	0.40521240234375
819	0.40283203125	26.4361419332552	1.33270263671875E-05	0.40277099609375
820	0.400390625	26.4605419331936	1.29058837890625E-05	0.400390625
821	0.39794921875	26.4849419331319	1.275634765625E-05	0.397979736328125
822	0.3955078125	26.5093419330703	1.2518310546875E-05	0.39544677734375
823	0.39306640625	26.5337419330087	1.23779296875E-05	0.393035888671875
824	0.390625	26.5581419329471	1.21002197265625E-05	0.390594482421875
825	0.38818359375	26.5825419328855	1.19140625E-05	0.38818359375
826	0.3857421875	26.6069419328239	1.18194580078125E-05	0.385650634765625
827	0.38330078125	26.6313419327623	1.14715576171875E-05	0.38330078125
828	0.380859375	26.6557419327007	1.1285400390625E-05	0.380859375
829	0.37841796875	26.6801419326391	1.09954833984375E-05	0.378387451171875
830	0.3759765625	26.7045419325775	1.1138916015625E-05	0.3759765625
831	0.37353515625	26.7289419325159	1.075439453125E-05	0.373565673828125
832	0.37109375	26.7533419324543	1.064453125E-05	0.37109375
833	0.36865234375	26.7777419323927	1.05499267578125E-05	0.368560791015625
834	0.3662109375	26.8021419323311	1.02386474609375E-05	0.36614990234375
835	0.36376953125	26.8265419322695	1.01104736328125E-05	0.36376953125
836	0.361328125	26.8509419322079	9.7808837890625E-06	0.361358642578125
837	0.35888671875	26.8753419321463	9.9578857421875E-06	0.35888671875
838	0.3564453125	26.8997419320847	9.6954345703125E-06	0.356475830078125
839	0.35400390625	26.9241419320231	9.6649169921875E-06	0.35400390625
840	0.3515625	26.9485419319615	9.28955078125E-06	0.351531982421875
841	0.34912109375	26.9729419318999	9.112548828125E-06	0.34893798828125
842	0.3466796875	26.9973419318383	8.837890625E-06	0.3465576171875
843	0.34423828125	27.0217419317767	8.6669921875E-06	0.34405517578125
844	0.341796875	27.0461419317151	8.5540771484375E-06	0.341644287109375
845	0.33935546875	27.0705419316535	8.306884765625E-06	0.3392333984375
846	0.3369140625	27.0949419315918	8.1756591796875E-06	0.336761474609375
847	0.33447265625	27.1193419315302	8.209228515625E-06	0.334320068359375
848	0.33203125	27.1437419314686	7.84912109375E-06	0.331878662109375
849	0.32958984375	27.168141931407	7.720947265625E-06	0.329498291015625
850	0.3271484375	27.1925419313454	7.5775146484375E-06	0.32696533203125
851	0.32470703125	27.2169419312838	7.4249267578125E-06	0.3245849609375
852	0.322265625	27.2413419312222	7.061767578125E-06	0.322113037109375
853	0.31982421875	27.2657419311606	7.0159912109375E-06	0.3197021484375
854	0.3173828125	27.290141931099	6.903076171875E-06	0.3172607421875
855	0.31494140625	27.3145419310374	6.75048828125E-06	0.314788818359375
856	0.3125	27.3389419309758	6.55517578125E-06	0.312347412109375
857	0.31005859375	27.3633419309142	6.549072265625E-06	0.309906005859375
858	0.3076171875	27.3877419308526	6.53076171875E-06	0.3074951171875
859	0.30517578125	27.412141930791	6.3140869140625E-06	0.3050537109375
860	0.302734375	27.4365419307294	6.3323974609375E-06	0.3026123046875
861	0.30029296875	27.4609419306678	6.3446044921875E-06	0.300201416015625
862	0.2978515625	27.4853419306062	6.21337890625E-06	0.2977294921875
863	0.29541015625	27.5097419305446	5.99365234375E-06	0.29534912109375
864	0.29296875	27.534141930483	6.0882568359375E-06	0.292816162109375
865	0.29052734375	27.5585419304214	5.6427001953125E-06	0.2904052734375
866	0.2880859375	27.5829419303598	5.50537109375E-06	0.2879638671875
867	0.28564453125	27.6073419302982	5.548095703125E-06	0.2855224609375
868	0.283203125	27.6317419302366	5.3741455078125E-06	0.2830810546875
869	0.28076171875	27.656141930175	5.462646484375E-06	0.2806396484375
870	0.2783203125	27.6805419301133	5.16357421875E-06	0.2781982421875
871	0.27587890625	27.7049419300517	5.1513671875E-06	0.275787353515625
872	0.2734375	27.7293419299901	4.9072265625E-06	0.273345947265625
873	0.27099609375	27.7537419299285	4.8736572265625E-06	0.2708740234375
874	0.2685546875	27.7781419298669	4.76165771484375E-06	0.2684326171875
875	0.26611328125	27.8025419298053	4.63653564453125E-06	0.26605224609375
876	0.263671875	27.8269419297437	4.57183837890625E-06	0.26361083984375
877	0.26123046875	27.8513419296821	4.5379638671875E-06	0.2611083984375
878	0.2587890625	27.8757419296205	4.43878173828125E-06	0.258758544921875
879	0.25634765625	27.9001419295589	4.13909912109375E-06	0.256317138671875
880	0.25390625	27.9245419294973	4.193115234375E-06	0.2537841796875
881	0.25146484375	27.9489419294357	4.06646728515625E-06	0.251373291015625
882	0.2490234375	27.9733419293741	3.87481689453125E-06	0.24896240234375
883	0.24658203125	27.9977419293125	3.9007568359375E-06	0.246490478515625
884	0.244140625	28.0221419292509	3.814697265625E-06	0.244140625
885	0.24169921875	28.0465419291893	3.75732421875E-06	0.24163818359375
886	0.2392578125	28.0709419291277	3.5662841796875E-06	0.23919677734375
887	0.23681640625	28.0953419290661	3.51776123046875E-06	0.23675537109375
888	0.234375	28.1197419290045	3.330078125E-06	0.23431396484375
889	0.23193359375	28.1441419289429	3.358154296875E-06	0.23187255859375
890	0.2294921875	28.1685419288813	3.15460205078125E-06	0.229522705078125
891	0.22705078125	28.1929419288197	3.0670166015625E-06	0.227020263671875
892	0.224609375	28.2173419287581	3.04229736328125E-06	0.22454833984375
893	0.22216796875	28.2417419286965	2.823486328125E-06	0.22210693359375
894	0.2197265625	28.2661419286349	2.88909912109375E-06	0.219635009765625
895	0.21728515625	28.2905419285732	2.5628662109375E-06	0.21728515625
896	0.21484375	28.3149419285116	2.59063720703125E-06	0.21484375
897	0.21240234375	28.33934192845	2.46856689453125E-06	0.21240234375
898	0.2099609375	28.3637419283884	2.45208740234375E-06	0.209930419921875
899	0.20751953125	28.3881419283268	2.42401123046875E-06	0.20751953125
900	0.205078125	28.4125419282652	2.3187255859375E-06	0.20501708984375
901	0.20263671875	28.4369419282036	2.318115234375E-06	0.20263671875
902	0.2001953125	28.461341928142	2.11944580078125E-06	0.2001953125
903	0.19775390625	28.4857419280804	2.19451904296875E-06	0.19775390625
904	0.1953125	28.5101419280188	1.99066162109375E-06	0.195281982421875
905	0.19287109375	28.5345419279572	1.966552734375E-06	0.19293212890625
906	0.1904296875	28.5589419278956	1.84417724609375E-06	0.190399169921875
907	0.18798828125	28.583341927834	1.77490234375E-06	0.18798828125
908	0.185546875	28.6077419277724	1.67999267578125E-06	0.185546875
909	0.18310546875	28.6321419277108	1.53533935546875E-06	0.18310546875
910	0.1806640625	28.6565419276492	1.458740234375E-06	0.1806640625
911	0.17822265625	28.6809419275876	1.23291015625E-06	0.178192138671875
912	0.17578125	28.705341927526	1.278076171875E-06	0.175750732421875
913	0.17333984375	28.7297419274644	1.103515625E-06	0.17333984375
914	0.1708984375	28.7541419274028	1.10504150390625E-06	0.17095947265625
915	0.16845703125	28.7785419273412	9.8419189453125E-07	0.168487548828125
916	0.166015625	28.8029419272796	9.1949462890625E-07	0.166046142578125
917	0.16357421875	28.827341927218	8.4503173828125E-07	0.163604736328125
918	0.1611328125	28.8517419271564	7.6751708984375E-07	0.161163330078125
919	0.15869140625	28.8761419270947	7.2357177734375E-07	0.15869140625
920	0.15625	28.9005419270331	5.078125E-07	0.156158447265625
921	0.15380859375	28.9249419269715	5.0994873046875E-07	0.15374755859375
922	0.1513671875	28.9493419269099	3.33251953125E-07	0.151275634765625
923	0.14892578125	28.9737419268483	2.26165771484375E-07	0.148895263671875
924	0.146484375	28.9981419267867	2.0068359375E-07	0.146484375
925	0.14404296875	29.0225419267251	1.0089111328125E-07	0.144134521484375
926	0.1416015625	29.0469419266635	9.3017578125E-08	0.1417236328125
927	0.13916015625	29.0713419266019	-3.594970703125E-08	0.139190673828125
928	0.13671875	29.0957419265403	-2.642822265625E-08	0.13677978515625
929	0.13427734375	29.1201419264787	-2.6251220703125E-07	0.13433837890625
930	0.1318359375	29.1445419264171	-2.53662109375E-07	0.1319580078125
931	0.12939453125	29.1689419263555	-3.8543701171875E-07	0.129547119140625
932	0.126953125	29.1933419262939	-4.6112060546875E-07	0.12701416015625
933	0.12451171875	29.2177419262323	-5.1910400390625E-07	0.12457275390625
934	0.1220703125	29.2421419261707	-6.3507080078125E-07	0.122161865234375
935	0.11962890625	29.2665419261091	-6.6253662109375E-07	0.11981201171875
936	0.1171875	29.2909419260475	-8.5418701171875E-07	0.117279052734375
937	0.11474609375	29.3153419259859	-8.3984375E-07	0.1148681640625
938	0.1123046875	29.3397419259243	-9.92431640625E-07	0.11248779296875
939	0.10986328125	29.3641419258627	-1.0150146484375E-06	0.110015869140625
940	0.107421875	29.3885419258011	-1.12762451171875E-06	0.10760498046875
941	0.10498046875	29.4129419257395	-1.2567138671875E-06	0.10516357421875
942	0.1025390625	29.4373419256779	-1.2957763671875E-06	0.102752685546875
943	0.10009765625	29.4617419256163	-1.45355224609375E-06	0.10028076171875
944	0.09765625	29.4861419255546	-1.4202880859375E-06	0.097869873046875
945	0.09521484375	29.510541925493	-1.60491943359375E-06	0.095458984375
946	0.0927734375	29.5349419254314	-1.58721923828125E-06	0.093017578125
947	0.09033203125	29.5593419253698	-1.77001953125E-06	0.090576171875
948	0.087890625	29.5837419253082	-1.7413330078125E-06	0.08819580078125
949	0.08544921875	29.6081419252466	-1.86065673828125E-06	0.085723876953125
950	0.0830078125	29.632541925185	-2.0013427734375E-06	0.083343505859375
951	0.08056640625	29.6569419251234	-1.99859619140625E-06	0.080902099609375
952	0.078125	29.6813419250618	-2.1368408203125E-06	0.07843017578125
953	0.07568359375	29.7057419250002	-2.1075439453125E-06	0.07598876953125
954	0.0732421875	29.7301419249386	-2.27813720703125E-06	0.073577880859375
955	0.07080078125	29.754541924877	-2.29278564453125E-06	0.071136474609375
956	0.068359375	29.7789419248154	-2.41668701171875E-06	0.068756103515625
957	0.06591796875	29.8033419247538	-2.44964599609375E-06	0.06634521484375
958	0.0634765625	29.8277419246922	-2.489013671875E-06	0.063934326171875
959	0.06103515625	29.8521419246306	-2.587890625E-06	0.061492919921875
960	0.05859375	29.876541924569	-2.58209228515625E-06	0.059051513671875
961	0.05615234375	29.9009419245074	-2.7288818359375E-06	0.05657958984375
962	0.0537109375	29.9253419244458	-2.69927978515625E-06	0.05426025390625
963	0.05126953125	29.9497419243842	-2.8765869140625E-06	0.051727294921875
964	0.048828125	29.9741419243226	-2.86529541015625E-06	0.049346923828125
965	0.04638671875	29.998541924261	-2.97332763671875E-06	0.0465667724609375
966	0.0439453125	30.0229419241994	-3.0413818359375E-06	0.0441497802734375
967	0.04150390625	30.0473419241378	-3.0963134765625E-06	0.041656494140625
968	0.0390625	30.0717419240762	-3.2318115234375E-06	0.0392120361328125
969	0.03662109375	30.0961419240145	-3.22845458984375E-06	0.036773681640625
970	0.0341796875	30.1205419239529	-3.3966064453125E-06	0.0343414306640625
971	0.03173828125	30.1449419238913	-3.36212158203125E-06	0.0318878173828125
972	0.029296875	30.1693419238297	-3.51715087890625E-06	0.0294525146484375
973	0.02685546875	30.1937419237681	-3.55865478515625E-06	0.0270050048828125
974	0.0244140625	30.2181419237065	-3.6419677734375E-06	0.0245574951171875
975	0.02197265625	30.2425419236449	-3.7396240234375E-06	0.022137451171875
976	0.01953125	30.2669419235833	-3.76220703125E-06	0.019677734375
977	0.01708984375	30.2913419235217	-3.922119140625E-06	0.0172393798828125
978	0.0146484375	30.3157419234601	-3.9013671875E-06	0.014794921875
979	0.01220703125	30.3401419233985	-4.07318115234375E-06	0.012359619140625
980	0.009765625	30.3645419233369	-4.0521240234375E-06	0.0099151611328125
981	0.00732421875	30.3889419232753	-4.1876220703125E-06	0.00749816894531249
982	0.0048828125	30.4133419232137	-4.24896240234375E-06	0.00504455566406251
983	0.00244140625	30.4377419231521	-4.31732177734375E-06	0.0025787353515625
984	0	30.4621419230905	-4.4305419921875E-06	0.000155639648437497
985	0.00244140625	30.4865419230289	-4.27886962890625E-06	0.0025909423828125
986	0.0048828125	30.5109419229673	-4.30419921875E-06	0.0050384521484375
