Index	Time (s)	WE(1).Potential (V)	Corrected time (s)	dWE(1).Potential/dt (V/s)	OCP value (V)
1	31.4908149204933	0.136688232421875	0	0	0.138991711186428
2	31.5908149202409	0.137420654296875	0.0999999997475243	0.00732419081032276	
3	31.6908149199884	0.13775634765625	0.199999999495049	0.00137328577693552	
4	31.7908149197359	0.14031982421875	0.299999999242573	0.0455218814313412	
5	31.8908149194834	0.13983154296875	0.399999998990097	-0.0377399288117886	
6	31.990814919231	0.139892578125	0.499999998737621	0.0153604559600353	
7	32.0908149189785	0.138885498046875	0.599999998485146	-0.0208027362823486	
8	32.190814918726	0.138153076171875	0.69999999823267	-0.00147501064930111	
9	32.2908149184735	0.13787841796875	0.799999997980194	0.000152587308548391	
10	32.3908149182211	0.137939453125	0.899999997727718	0.00188191013876349	
11	32.4908149179686	0.13824462890625	0.999999997475243	0.00396727025508881	
12	32.5908149177161	0.137908935546875	1.09999999722277	-0.00951127521693707	
13	32.6908149174636	0.137908935546875	1.19999999697029	0.00493365619331598	
14	32.7908149172112	0.13836669921875	1.29999999671782	0.00727332849055529	
15	32.8908149169587	0.1387939453125	1.39999999646534	0.00249225948937237	
16	32.9908149167062	0.1373291015625	1.49999999621286	-0.0303140114992857	
17	33.0908149164537	0.13763427734375	1.59999999596039	0.0241087954491377	
18	33.1908149162012	0.1365966796875	1.69999999570791	-0.0274657160043716	
19	33.2908149159488	0.1368408203125	1.79999999545544	0.0175984036177397	
20	33.3908149156963	0.137542724609375	1.89999999520296	0.00656125415116549	
21	33.4908149154438	0.138458251953125	1.99999999495049	0.00940955057740211	
22	33.5908149151913	0.1376953125	2.09999999469801	-0.0223286096006632	
23	33.6908149149389	0.13751220703125	2.19999999444553	0.00859575159847736	
24	33.7908149146864	0.138214111328125	2.29999999419306	0.0124612972140312	
25	33.8908149144339	0.13763427734375	2.39999999394058	-0.0194294508546591	
26	33.9908149141814	0.137908935546875	2.49999999368811	0.0141397574916482	
27	34.090814913929	0.136383056640625	2.59999999343563	-0.0331114456057549	
28	34.1908149136765	0.13690185546875	2.69999999318316	0.0282286517322063	
29	34.290814913424	0.13800048828125	2.79999999293068	0.00900265108793974	
30	34.3908149131715	0.13671875	2.8999999926782	-0.0345864556729794	
31	34.4908149129191	0.136383056640625	2.99999999242573	0.0124612972140312	
32	34.5908149126666	0.13739013671875	3.09999999217325	0.0181070268154144	
33	34.6908149124141	0.13702392578125	3.19999999192078	-0.0195820387452841	
34	34.7908149121616	0.13665771484375	3.2999999916683	0.000915523851290345	
35	34.8908149119092	0.1356201171875	3.39999999141583	-0.0159708056598902	
36	34.9908149116567	0.13775634765625	3.49999999116335	0.0500486381351948	
37	35.0908149114042	0.13665771484375	3.59999999091087	-0.0485227629542351	
38	35.1908149111517	0.137908935546875	3.6999999906584	0.0428770333528519	
39	35.2908149108993	0.136474609375	3.79999999040592	-0.0445554926991463	
40	35.3908149106468	0.13665771484375	3.89999999015345	0.0242613814771175	
41	35.4908149103943	0.13592529296875	3.99999998990097	-0.0203449744731188	
42	35.5908149101418	0.136322021484375	4.0999999896485	0.01642856746912	
43	35.6908149098894	0.137542724609375	4.19999998939602	0.0153095936402678	
44	35.7908149096369	0.13812255859375	4.29999998914354	-0.00228880974464118	
45	35.8908149093844	0.1395263671875	4.39999998889107	0.023040683940053	
46	35.9908149091319	0.1385498046875	4.49999998863859	-0.0323485098779202	
47	36.0908149088795	0.140380859375	4.59999998838612	0.049641739577055	
48	36.190814908627	0.139923095703125	4.69999998813364	-0.0330097228288651	
49	36.2908149083745	0.1392822265625	4.79999998788116	-0.000305174617096782	
50	36.390814908122	0.137176513671875	4.89999998762869	-0.0326536856591702	
51	36.4908149078695	0.1373291015625	4.99999998737621	0.0252277683466673	
52	36.5908149076171	0.136688232421875	5.09999998712374	-0.0205484237521887	
53	36.6908149073646	0.13763427734375	5.19999998687126	0.0253294929862022	
54	36.7908149071121	0.13677978515625	5.29999998661879	-0.0288390014320612	
55	36.8908149068596	0.139068603515625	5.39999998636631	0.0550840198993683	
56	36.9908149066072	0.137298583984375	5.49999998611383	-0.0620013102889061	
57	37.0908149063547	0.139984130859375	5.59999998586136	0.0775143504142761	
58	37.1908149061022	0.13873291015625	5.69999998560888	-0.0601702630519867	
59	37.2908149058497	0.13726806640625	5.79999998535641	-0.00330605846829712	
60	37.3908149055973	0.13671875	5.89999998510393	0.00284829642623663	
61	37.4908149053448	0.13702392578125	5.99999998485146	0.00712074106559157	
62	37.5908149050923	0.137664794921875	6.09999998459898	0.0063578044064343	
63	37.6908149048398	0.13916015625	6.1999999843465	0.0209553241729736	
64	37.7908149045874	0.13922119140625	6.29999998409403	-0.0141906198114157	
65	37.8908149043349	0.13775634765625	6.39999998384155	-0.0225829221308231	
66	37.9908149040824	0.1378173828125	6.49999998358908	0.0184122025966644	
67	38.0908149038299	0.138427734375	6.5999999833366	0.00559486821293831	
68	38.1908149035775	0.137176513671875	6.69999998308413	-0.0298562496900558	
69	38.290814903325	0.13671875	6.79999998283165	0.00823971442878246	
70	38.3908149030725	0.135284423828125	6.89999998257917	-0.0251260437071323	
71	38.49081490282	0.1376953125	6.9999999823267	0.059407327324152	
72	38.5908149025676	0.13751220703125	7.09999998207422	-0.0362649187445641	
73	38.6908149023151	0.137908935546875	7.19999998182175	0.0174458157271147	
74	38.7908149020626	0.136505126953125	7.29999998156927	-0.0309752244502306	
75	38.8908149018101	0.1373291015625	7.3999999813168	0.0328062698245049	
76	38.9908149015577	0.135986328125	7.49999998106432	-0.0389097630977631	
77	39.0908149013052	0.1361083984375	7.59999998081184	0.0206501483917236	
78	39.1908149010527	0.13720703125	7.69999998055937	0.0142414821311831	
79	39.2908149008002	0.1380615234375	7.79999998030689	0.00325519591569901	
80	39.3908149005478	0.1387939453125	7.89999998005442	0.00712074106559157	
81	39.4908149002953	0.136016845703125	7.99999997980194	-0.0566098913550377	
82	39.5908149000428	0.136810302734375	8.09999997954947	0.0493874251842499	
83	39.6908148997903	0.136627197265625	8.19999997929699	-0.0218708477914333	
84	39.7908148995378	0.137054443359375	8.29999997904451	0.0126138841733336	
85	39.8908148992854	0.135894775390625	8.39999997879204	-0.0268553663045168	
86	39.9908148990329	0.1357421875	8.49999997853956	0.0121561223641038	
87	40.0908148987804	0.137115478515625	8.59999997828709	0.0230915453284979	
88	40.1908148985279	0.137786865234375	8.69999997803461	-0.00422158231958747	
89	40.2908148982755	0.13818359375	8.79999997778214	0.00401813257485628	
90	40.390814898023	0.13763427734375	8.89999997752966	-0.0124612972140312	
91	40.4908148977705	0.13885498046875	8.99999997727718	0.0301105622202158	
92	40.590814897518	0.137725830078125	9.09999997702471	-0.0367735400795937	
93	40.6908148972656	0.13873291015625	9.19999997677223	0.035705428570509	
94	40.7908148970131	0.136932373046875	9.29999997651976	-0.0485227629542351	
95	40.8908148967606	0.138885498046875	9.39999997626728	0.0601702630519867	
96	40.9908148965081	0.13958740234375	9.49999997601481	-0.0159199424088001	
97	41.0908148962557	0.137847900390625	9.59999997576233	-0.0335692092776299	
98	41.1908148960032	0.13702392578125	9.69999997550985	0.00752764055505395	
99	41.2908148957507	0.13677978515625	9.79999997525738	-0.00066121167037636	
100	41.3908148954982	0.137298583984375	9.8999999750049	0.00961300078779459	
101	41.4908148952458	0.13739013671875	9.99999997475243	-0.00518796872347593	
102	41.5908148949933	0.13836669921875	10.0999999745	0.0185647886246443	
103	41.6908148947408	0.137725830078125	10.1999999742475	-0.0228372346609831	
104	41.7908148944883	0.138519287109375	10.299999973995	0.0252786315977573	
105	41.8908148942359	0.139617919921875	10.3999999737425	0.00874833948910236	
106	41.9908148939834	0.13690185546875	10.49999997349	-0.0599668137729168	
107	42.0908148937309	0.136627197265625	10.5999999732376	0.0303140114992857	
108	42.1908148934784	0.137847900390625	10.6999999729851	0.016530292108655	
109	42.290814893226	0.1357421875	10.7999999727326	-0.0537615939974785	
110	42.3908148929735	0.1357421875	10.8999999724801	0.0286355521529913	
111	42.490814892721	0.1373291015625	10.9999999722277	0.0220742970705032	
112	42.5908148924685	0.139862060546875	11.0999999719752	0.0279234778136015	
113	42.6908148922161	0.138671875	11.1999999717227	-0.046081367880106	
114	42.7908148919636	0.138275146484375	11.2999999714702	0.0150552811101079	
115	42.8908148917111	0.1365966796875	11.3999999712178	-0.0301105622202158	
116	42.9908148914586	0.139190673828125	11.4999999709653	0.0658159926533699	
117	43.0908148912062	0.136932373046875	11.5999999707128	-0.0772600397467613	
118	43.1908148909537	0.137481689453125	11.6999999704603	0.0450641177594662	
119	43.2908148907012	0.138580322265625	11.7999999702079	0.00620521744713187	
120	43.3908148904487	0.138153076171875	11.8999999699554	-0.0188191011548042	
121	43.4908148901962	0.13739013671875	11.9999999697029	-0.00534055568277836	
122	43.5908148899438	0.136444091796875	12.0999999694504	-0.00986731238663197	
123	43.6908148896913	0.136505126953125	12.199999969198	0.00961300078779459	
124	43.7908148894388	0.1368408203125	12.2999999689455	0.00228880974464118	
125	43.8908148891863	0.136566162109375	12.399999968693	-0.00874833948910236	
126	43.9908148889339	0.1373291015625	12.4999999684405	0.0183104779571295	
127	44.0908148886814	0.136199951171875	12.5999999681881	-0.0305174626410007	
128	44.1908148884289	0.135284423828125	12.6999999679356	-0.00106811115983874	
129	44.2908148881764	0.13787841796875	12.7999999676831	0.0544736683368683	
130	44.390814887924	0.137359619140625	12.8999999674306	-0.042826171964407	
131	44.4908148876715	0.1385498046875	12.9999999671782	0.0365192294120789	
132	44.590814887419	0.13720703125	13.0999999669257	-0.0402321852743626	
133	44.6908148871665	0.137908935546875	13.1999999666732	0.0325010977685452	
134	44.7908148869141	0.13726806640625	13.2999999664207	-0.0244139693677425	
135	44.8908148866616	0.13677978515625	13.3999999661683	0.000864661415107548	
136	44.9908148864091	0.136077880859375	13.4999999659158	-0.00930782593786716	
137	45.0908148861566	0.138214111328125	13.5999999656633	0.0457253307104111	
138	45.1908148859042	0.13720703125	13.6999999654108	-0.0457253307104111	
139	45.2908148856517	0.136383056640625	13.7999999651583	0.00376382027752697	
140	45.3908148853992	0.1358642578125	13.8999999649059	-0.00325519591569901	
141	45.4908148851467	0.13427734375	13.9999999646534	-0.0257872547954321	
142	45.5908148848943	0.13720703125	14.0999999644009	0.0704953372478485	
143	45.6908148846418	0.13677978515625	14.1999999641484	-0.0473020672798157	
144	45.7908148843893	0.13726806640625	14.299999963896	0.0237018950283527	
145	45.8908148841368	0.141143798828125	14.3999999636435	0.0639340803027153	
146	45.9908148838844	0.1412353515625	14.499999963391	-0.0419106483459473	
147	46.0908148836319	0.1392822265625	14.5999999631385	-0.0239562075585127	
148	46.1908148833794	0.140625	14.6999999628861	0.0477089658379555	
149	46.2908148831269	0.1392822265625	14.7999999626336	-0.0467934422194958	
150	46.3908148828745	0.13812255859375	14.8999999623811	-0.00111897359602153	
151	46.490814882622	0.1380615234375	14.9999999621286	0.00793454051017761	
152	46.5908148823695	0.1392822265625	15.0999999618762	0.0192260015755892	
153	46.690814882117	0.139007568359375	15.1999999616237	-0.019480312243104	
154	46.7908148818645	0.139862060546875	15.2999999613712	0.022938959300518	
155	46.8908148816121	0.137603759765625	15.3999999611187	-0.052286583930254	
156	46.9908148813596	0.137115478515625	15.4999999608663	0.0202432498335838	
157	47.0908148811071	0.136322021484375	15.5999999606138	-0.01637770421803	
158	47.1908148808546	0.13751220703125	15.6999999603613	0.029449351131916	
159	47.2908148806022	0.138092041015625	15.7999999601088	-0.00590004259720445	
160	47.3908148803497	0.138671875	15.8999999598564	0.00783281493932009	
161	47.4908148800972	0.137939453125	15.9999999596039	-0.0182596147060394	
162	47.5908148798447	0.138671875	16.0999999593514	0.0239053443074226	
163	47.6908148795923	0.136810302734375	16.1999999590989	-0.0451149791479111	
164	47.7908148793398	0.135711669921875	16.2999999588465	0.00401813257485628	
165	47.8908148790873	0.13592529296875	16.399999958594	0.0105285244062543	
166	47.9908148788348	0.1363525390625	16.4999999583415	0.0016784603940323	
167	48.0908148785824	0.13482666015625	16.599999958089	-0.0322467833757401	
168	48.1908148783299	0.1351318359375	16.6999999578366	0.0248208697885275	
169	48.2908148780774	0.135986328125	16.7999999575841	0.00701901642605662	
170	48.3908148778249	0.135498046875	16.8999999573316	-0.0179035775363445	
171	48.4908148775725	0.136627197265625	16.9999999570791	0.029245899990201	
172	48.59081487732	0.136474609375	17.0999999568267	-0.0175984036177397	
173	48.6908148770675	0.135223388671875	17.1999999565742	-0.0173949524760246	
174	48.790814876815	0.133941650390625	17.2999999563217	-0.00940955057740211	
175	48.8908148765626	0.134765625	17.3999999560692	0.025888979434967	
176	48.9908148763101	0.13299560546875	17.4999999558167	-0.0463356785476208	
177	49.0908148760576	0.13629150390625	17.5999999555643	0.0838212966918945	
178	49.1908148758051	0.13824462890625	17.6999999553118	-0.00854488927870989	
179	49.2908148755527	0.1373291015625	17.7999999550593	-0.0285846889019012	
180	49.3908148753002	0.13714599609375	17.8999999548068	0.0138345826417208	
181	49.4908148750477	0.137451171875	17.9999999545544	0.00467934412881732	
182	49.5908148747952	0.13702392578125	18.0999999543019	-0.0120035354048014	
183	49.6908148745428	0.136444091796875	18.1999999540494	-0.00462848180904984	
184	49.7908148742903	0.136199951171875	18.2999999537969	0.000864661415107548	
185	49.8908148740378	0.13641357421875	18.3999999535445	0.00483193155378103	
186	49.9908148737853	0.137603759765625	18.499999953292	0.0185139272361994	
187	50.0908148735328	0.13873291015625	18.5999999530395	0.00752764055505395	
188	50.1908148732804	0.137237548828125	18.699999952787	-0.036620955914259	
189	50.2908148730279	0.13720703125	18.7999999525346	0.0206501483917236	
190	50.3908148727754	0.136993408203125	18.8999999522821	-0.00854488927870989	
191	50.4908148725229	0.138153076171875	18.9999999520296	0.0236510336399078	
192	50.5908148722705	0.13775634765625	19.0999999517771	-0.0215148106217384	
193	50.690814872018	0.137664794921875	19.1999999515247	0.00681556668132544	
194	50.7908148717655	0.1376953125	19.2999999512722	0.000305174617096782	
195	50.890814871513	0.1383056640625	19.3999999510197	0.0105285244062543	
196	50.9908148712606	0.139190673828125	19.4999999507672	0.00920610129833221	
197	51.0908148710081	0.136749267578125	19.5999999505148	-0.0530495196580887	
198	51.1908148707556	0.139007568359375	19.6999999502623	0.0728350058197975	
199	51.2908148705031	0.1396484375	19.7999999500098	-0.022735508158803	
200	51.3908148702507	0.140777587890625	19.8999999497573	0.0207518748939037	
201	51.4908148699982	0.140594482421875	19.9999999495049	-0.0143940690904856	
202	51.5908148697457	0.13848876953125	20.0999999492524	-0.0327045470476151	
203	51.6908148694932	0.13726806640625	20.1999999489999	0.00157673552166671	
204	51.7908148692408	0.136932373046875	20.2999999487474	0.00106811115983874	
205	51.8908148689883	0.137359619140625	20.399999948495	0.00768022798001766	
206	51.9908148687358	0.137939453125	20.4999999482425	0.00452675670385361	
207	52.0908148684833	0.137298583984375	20.59999994799	-0.0170897785574198	
208	52.1908148682309	0.1353759765625	20.6999999477375	-0.0258381180465221	
209	52.2908148679784	0.136260986328125	20.799999947485	0.0365192294120789	
210	52.3908148677259	0.136474609375	20.8999999472326	-0.0128173343837261	
211	52.4908148674734	0.136871337890625	20.9999999469801	0.00773109029978514	
212	52.590814867221	0.136077880859375	21.0999999467276	-0.0184630639851093	
213	52.6908148669685	0.13494873046875	21.1999999464751	-0.0101216249167919	
214	52.790814866716	0.135955810546875	21.2999999462227	0.0289915893226862	
215	52.8908148664635	0.135772705078125	21.3999999459702	-0.0188699644058943	
216	52.9908148662111	0.13580322265625	21.4999999457177	0.00605263002216816	
217	53.0908148659586	0.138397216796875	21.5999999454652	0.0465899929404259	
218	53.1908148657061	0.1375732421875	21.6999999452128	-0.0452675670385361	
219	53.2908148654536	0.13739013671875	21.7999999449603	0.0149026941508055	
220	53.3908148652012	0.1348876953125	21.8999999447078	-0.0464882664382458	
221	53.4908148649487	0.134002685546875	21.9999999444553	0.0123595716431737	
222	53.5908148646962	0.135223388671875	22.0999999442029	0.0243631061166525	
223	53.6908148644437	0.1356201171875	22.1999999439504	-0.00991817470639944	
224	53.7908148641912	0.13525390625	22.2999999436979	-0.00727332849055529	
225	53.8908148639388	0.13555908203125	22.3999999434454	0.0111897364258766	
226	53.9908148636863	0.135467529296875	22.499999943193	-0.00645952951163054	
227	54.0908148634338	0.13519287109375	22.5999999429405	-0.00295002129860222	
228	54.1908148631813	0.13372802734375	22.699999942688	-0.0239562075585127	
229	54.2908148629289	0.133056640625	22.7999999424355	0.00386554514989257	
230	54.3908148626764	0.133270263671875	22.8999999421831	0.00686642900109291	
231	54.4908148624239	0.134552001953125	22.9999999419306	0.0187682397663593	
232	54.5908148621714	0.1341552734375	23.0999999416781	-0.0215148106217384	
233	54.690814861919	0.13543701171875	23.1999999414256	0.0323993712663651	
234	54.7908148616665	0.135040283203125	23.2999999411732	-0.0235493071377277	
235	54.890814861414	0.133544921875	23.3999999409207	-0.0185139272361994	
236	54.9908148611615	0.132720947265625	23.4999999406682	0.00101724872365594	
237	55.0908148609091	0.13250732421875	23.5999999404157	0.000712074106559157	
238	55.1908148606566	0.13177490234375	23.6999999401633	-0.0136819956824183	
239	55.2908148604041	0.13226318359375	23.7999999399108	0.0167846046388149	
240	55.3908148601516	0.133758544921875	23.8999999396583	0.0192768629640341	
241	55.4908148598992	0.135650634765625	23.9999999394058	0.0188699644058943	
242	55.5908148596467	0.134552001953125	24.0999999391533	-0.0372313037514687	
243	55.6908148593942	0.13427734375	24.1999999389009	0.0140888951718807	
244	55.7908148591417	0.133270263671875	24.2999999386484	-0.0189208257943392	
245	55.8908148588893	0.13250732421875	24.3999999383959	-0.00315347104333341	
246	55.9908148586368	0.130462646484375	24.4999999381434	-0.0319416113197803	
247	56.0908148583843	0.13397216796875	24.599999937891	0.0856523439288139	
248	56.1908148581318	0.1341552734375	24.6999999376385	-0.0444029085338116	
249	56.2908148578794	0.133544921875	24.799999937386	-0.0016275979578495	
250	56.3908148576269	0.1336669921875	24.8999999371335	0.00996903795748949	
251	56.4908148573744	0.133941650390625	24.9999999368811	0.00157673552166671	
252	56.5908148571219	0.133209228515625	25.0999999366286	-0.016225116327405	
253	56.6908148568695	0.13311767578125	25.1999999363761	0.00778195261955261	
254	56.790814856617	0.132080078125	25.2999999361236	-0.0203958377242088	
255	56.8908148563645	0.13275146484375	25.3999999358712	0.0241087954491377	
256	56.990814856112	0.1322021484375	25.4999999356187	-0.0213622227311134	
257	57.0908148558595	0.132232666015625	25.5999999353662	0.00920610129833221	
258	57.1908148556071	0.1328125	25.6999999351137	0.00844316463917494	
259	57.2908148553546	0.1322021484375	25.7999999348613	-0.0178527142852545	
260	57.3908148551021	0.131683349609375	25.8999999346088	-0.000457761925645173	
261	57.4908148548496	0.130828857421875	25.9999999343563	-0.0116474982351065	
262	57.5908148545972	0.1322021484375	26.0999999341038	0.0334166213870049	
263	57.6908148543447	0.132415771484375	26.1999999338514	-0.0149535564705729	
264	57.7908148540922	0.131683349609375	26.2999999335989	-0.011342323385179	
265	57.8908148538397	0.131500244140625	26.3999999333464	0.00590004259720445	
266	57.9908148535873	0.13092041015625	26.4999999330939	-0.0109354238957167	
267	58.0908148533348	0.131439208984375	26.5999999328415	0.0156656298786402	
268	58.1908148530823	0.130828857421875	26.699999932589	-0.0191751383244991	
269	58.2908148528298	0.131103515625	26.7999999323365	0.0138854449614882	
270	58.3908148525774	0.131622314453125	26.899999932084	0.00427244463935494	
271	58.4908148523249	0.132080078125	26.9999999318316	0.00325519591569901	
272	58.5908148520724	0.132415771484375	27.0999999315791	0.00254312180913985	
273	58.6908148518199	0.133453369140625	27.1999999313266	0.0166320167481899	
274	58.7908148515675	0.1331787109375	27.2999999310741	-0.0160216670483351	
275	58.890814851315	0.134063720703125	27.3999999308217	0.022888096049428	
276	58.9908148510625	0.133880615234375	27.4999999305692	-0.014597519300878	
277	59.09081485081	0.133514404296875	27.5999999303167	-0.0016275979578495	
278	59.1908148505576	0.132904052734375	27.6999999300642	-0.00752764055505395	
279	59.2908148503051	0.13531494140625	27.7999999298117	0.0500994995236397	
280	59.3908148500526	0.133880615234375	27.8999999295593	-0.0564573034644127	
281	59.4908148498001	0.132659912109375	27.9999999293068	0.00239053461700678	
282	59.5908148495477	0.135009765625	28.0999999290543	0.0525408983230591	
283	59.6908148492952	0.13433837890625	28.1999999288018	-0.0437925569713116	
284	59.7908148490427	0.1337890625	28.2999999285494	0.00559486821293831	
285	59.8908148487902	0.1331787109375	28.3999999282969	-0.00701901642605662	
286	59.9908148485378	0.133514404296875	28.4999999280444	0.011444048024714	
287	60.0908148482853	0.1339111328125	28.5999999277919	0.00132242334075272	
288	60.1908148480328	0.132354736328125	28.6999999275395	-0.0320433340966702	
289	60.2908148477803	0.12982177734375	28.799999927287	-0.0269570909440517	
290	60.3908148475278	0.131378173828125	28.8999999270345	0.052896935492754	
291	60.4908148472754	0.132171630859375	28.999999926782	-0.0120543977245688	
292	60.5908148470229	0.133880615234375	29.0999999265296	0.0272622667253017	
293	60.6908148467704	0.133819580078125	29.1999999262771	-0.0184122025966644	
294	60.7908148465179	0.135223388671875	29.2999999260246	0.0321450605988503	
295	60.8908148462655	0.13531494140625	29.3999999257721	-0.0149026941508055	
296	60.990814846013	0.135650634765625	29.4999999255197	0.00976558774709702	
297	61.0908148457605	0.1356201171875	29.5999999252672	-0.00417071999981999	
298	61.190814845508	0.135040283203125	29.6999999250147	-0.00915523897856474	
299	61.2908148452556	0.135986328125	29.7999999247622	0.0240070708096027	
300	61.3908148450031	0.1375732421875	29.8999999245098	0.01612339168787	
301	61.4908148447506	0.13446044921875	29.9999999242573	-0.0724281072616577	
302	61.5908148444981	0.135345458984375	30.0999999240048	0.0578305907547474	
303	61.6908148442457	0.136627197265625	30.1999999237523	0.00279743410646915	
304	61.7908148439932	0.13568115234375	30.2999999234999	-0.0293476264923811	
305	61.8908148437407	0.13507080078125	30.3999999232474	0.00411985721439123	
306	61.9908148434882	0.13671875	30.4999999229949	0.0341795571148396	
307	62.0908148432358	0.13299560546875	30.5999999227424	-0.0895178914070129	
308	62.1908148429833	0.133087158203125	30.69999992249	0.0506081245839596	
309	62.2908148427308	0.1326904296875	30.7999999222375	-0.0207518748939037	
310	62.3908148424783	0.1314697265625	30.899999921985	-0.0174458157271147	
311	62.4908148422259	0.129180908203125	30.9999999217325	-0.0290424507111311	
312	62.5908148419734	0.130096435546875	31.09999992148	0.039418388158083	
313	62.6908148417209	0.130279541015625	31.1999999212276	-0.0149535564705729	
314	62.7908148414684	0.12969970703125	31.2999999209751	-0.00971472542732954	
315	62.890814841216	0.13238525390625	31.3999999207226	0.0566098913550377	
316	62.9908148409635	0.13275146484375	31.4999999204701	-0.0265501923859119	
317	63.090814840711	0.134124755859375	31.5999999202177	0.0298562496900558	
318	63.1908148404585	0.13409423828125	31.6999999199652	-0.0153604559600353	
319	63.2908148402061	0.134063720703125	31.7999999197127	0.00437416974455118	
320	63.3908148399536	0.1312255859375	31.8999999194602	-0.0517779588699341	
321	63.4908148397011	0.132965087890625	31.9999999192078	0.0649004653096199	
322	63.5908148394486	0.135009765625	32.0999999189553	0.00773109029978514	
323	63.6908148391962	0.135162353515625	32.1999999187028	-0.0152587313205004	
324	63.7908148389437	0.13330078125	32.2999999184503	-0.0290933139622211	
325	63.8908148386912	0.133697509765625	32.3999999181979	0.0295002125203609	
326	63.9908148384387	0.132537841796875	32.4999999179454	-0.0320941954851151	
327	64.0908148381862	0.13134765625	32.5999999176929	-0.00696815364062786	
328	64.1908148379338	0.1318359375	32.6999999174404	0.0189716890454292	
329	64.2908148376813	0.13250732421875	32.799999917188	0.00264484668150544	
330	64.3908148374288	0.133056640625	32.8999999169355	0.00386554514989257	
331	64.4908148371763	0.132843017578125	32.999999916683	-0.00808712746948004	
332	64.5908148369239	0.13323974609375	33.0999999164305	0.011596635915339	
333	64.6908148366714	0.132080078125	33.1999999161781	-0.0266010537743568	
334	64.7908148364189	0.134521484375	33.2999999159256	0.0596107766032219	
335	64.8908148361664	0.13348388671875	33.3999999156731	-0.0513710603117943	
336	64.990814835914	0.1328125	33.4999999154206	0.00793454051017761	
337	65.0908148356615	0.132568359375	33.5999999151682	-0.000101724872365594	
338	65.190814835409	0.13226318359375	33.6999999149157	-0.00498451897874475	
339	65.2908148351565	0.1348876953125	33.7999999146632	0.0508624352514744	
340	65.3908148349041	0.133514404296875	33.8999999144107	-0.0568133406341076	
341	65.4908148346516	0.133758544921875	33.9999999141583	0.029245899990201	
342	65.5908148343991	0.134124755859375	34.0999999139058	-0.000712074106559157	
343	65.6908148341466	0.13409423828125	34.1999999136533	-0.00401813257485628	
344	65.7908148338942	0.135040283203125	34.2999999134008	0.0189208257943392	
345	65.8908148336417	0.132568359375	34.3999999131483	-0.0564573034644127	
346	65.9908148333892	0.13330078125	34.4999999128959	0.0454201549291611	
347	66.0908148331367	0.13311767578125	34.5999999126434	-0.0201415251940489	
348	66.1908148328843	0.133026123046875	34.6999999123909	0.00289915897883475	
349	66.2908148326318	0.134307861328125	34.7999999121384	0.0239562075585127	
350	66.3908148323793	0.13275146484375	34.899999911886	-0.0437925569713116	
351	66.4908148321268	0.133087158203125	34.9999999116335	0.0285846889019012	
352	66.5908148318744	0.132354736328125	35.099999911381	-0.0225320588797331	
353	66.6908148316219	0.132354736328125	35.1999999111285	0.00966386310756207	
354	66.7908148313694	0.131622314453125	35.2999999108761	-0.0158690810203552	
355	66.8908148311169	0.132110595703125	35.3999999106236	0.0174966789782047	
356	66.9908148308645	0.1329345703125	35.4999999103711	0.00696815364062786	
357	67.090814830612	0.13323974609375	35.5999999101186	-0.00239053461700678	
358	67.1908148303595	0.1326904296875	35.6999999098662	-0.0108845615759492	
359	67.290814830107	0.13275146484375	35.7999999096137	0.00854488927870989	
360	67.3908148298545	0.129638671875	35.8999999093612	-0.0596107766032219	
361	67.4908148296021	0.13128662109375	35.9999999091087	0.0667315199971199	
362	67.5908148293496	0.131591796875	36.0999999088563	-0.0240070708096027	
363	67.6908148290971	0.132904052734375	36.1999999086038	0.025990704074502	
364	67.7908148288446	0.131591796875	36.2999999083513	-0.0383502766489983	
365	67.8908148285922	0.133056640625	36.3999999080988	0.0465391278266907	
366	67.9908148283397	0.132537841796875	36.4999999078464	-0.0309752244502306	
367	68.0908148280872	0.13299560546875	36.5999999075939	0.0193277262151241	
368	68.1908148278347	0.132171630859375	36.6999999073414	-0.0221760217100382	
369	68.2908148275823	0.131622314453125	36.7999999070889	0.00106811115983874	
370	68.3908148273298	0.1339111328125	36.8999999068365	0.045623604208231	
371	68.4908148270773	0.133758544921875	36.999999906584	-0.0313312597572803	
372	68.5908148268248	0.13397216796875	37.0999999063315	0.0133259585127234	
373	68.6908148265724	0.133941650390625	37.199999906079	-0.00356037053279579	
374	68.7908148263199	0.13421630859375	37.2999999058266	0.00610349234193563	
375	68.8908148260674	0.134613037109375	37.3999999055741	0.00396727025508881	
376	68.9908148258149	0.1341552734375	37.4999999053216	-0.0121052600443363	
377	69.0908148255625	0.1337890625	37.5999999050691	-5.0862436182797E-05	
378	69.19081482531	0.133056640625	37.6999999048167	-0.0106811113655567	
379	69.2908148250575	0.131988525390625	37.7999999045642	-0.0122578470036387	
380	69.390814824805	0.13250732421875	37.8999999043117	0.019531175494194	
381	69.4908148245526	0.13372802734375	37.9999999040592	0.0127664711326361	
382	69.5908148243001	0.134490966796875	38.0999999038067	0.00147501064930111	
383	69.6908148240476	0.1339111328125	38.1999999035543	-0.0154621805995703	
384	69.7908148237951	0.13201904296875	38.2999999033018	-0.0253803562372923	
385	69.8908148235427	0.132843017578125	38.3999999030493	0.0352476686239243	
386	69.9908148232902	0.131683349609375	38.4999999027968	-0.0371804423630238	
387	70.0908148230377	0.133636474609375	38.5999999025444	0.0520831346511841	
388	70.1908148227852	0.133270263671875	38.6999999022919	-0.03336575999856	
389	70.2908148225328	0.133636474609375	38.7999999020394	0.0174966789782047	
390	70.3908148222803	0.13494873046875	38.8999999017869	0.0185647886246443	
391	70.4908148220278	0.135986328125	38.9999999015345	0.00493365619331598	
392	70.5908148217753	0.13385009765625	39.099999901282	-0.0468951649963856	
393	70.6908148215228	0.1353759765625	39.1999999010295	0.0563555806875229	
394	70.7908148212704	0.13623046875	39.299999900777	-0.00925696361809969	
395	70.8908148210179	0.135040283203125	39.3999999005246	-0.0267027784138918	
396	70.9908148207654	0.13671875	39.4999999002721	0.0475055165588856	
397	71.0908148205129	0.136474609375	39.5999999000196	-0.0280252024531364	
398	71.1908148202605	0.13616943359375	39.6999998997671	0.00284829642623663	
399	71.290814820008	0.1357421875	39.7999998995147	-0.0050862436182797	
400	71.3908148197555	0.135223388671875	39.8999998992622	-0.00554400542750955	
401	71.490814819503	0.135040283203125	39.9999998990097	0.00127156090456992	
402	71.5908148192506	0.135589599609375	40.0999998987572	0.0104776620864868	
403	71.6908148189981	0.134979248046875	40.1999998985048	-0.0182087514549494	
404	71.7908148187456	0.136383056640625	40.2999998982523	0.0346881821751595	
405	71.8908148184931	0.13616943359375	40.3999998979998	-0.0223286096006632	
406	71.9908148182407	0.137237548828125	40.4999998977473	0.0267536416649818	
407	72.0908148179882	0.13629150390625	40.5999998974949	-0.0305174626410007	
408	72.1908148177357	0.135345458984375	40.6999998972424	-0.00274657155387104	
409	72.2908148174832	0.135406494140625	40.7999998969899	0.00900265108793974	
410	72.3908148172308	0.135650634765625	40.8999998967374	0.000610349234193563	
411	72.4908148169783	0.13580322265625	40.999999896485	0.000152587308548391	
412	72.5908148167258	0.13519287109375	41.0999998962325	-0.0121561223641038	
413	72.6908148164733	0.135894775390625	41.19999989598	0.0204975623637438	
414	72.7908148162209	0.13714599609375	41.2999998957275	0.0127156088128686	
415	72.8908148159684	0.13629150390625	41.399999895475	-0.0279234778136015	
416	72.9908148157159	0.137451171875	41.4999998952226	0.0354002565145493	
417	73.0908148154634	0.137054443359375	41.5999998949701	-0.0236510336399078	
418	73.190814815211	0.136932373046875	41.6999998947176	0.00625607976689935	
419	73.2908148149585	0.13836669921875	41.7999998944651	0.0263976044952869	
420	73.390814814706	0.1356201171875	41.8999998942127	-0.0674944519996643	
421	73.4908148144535	0.136810302734375	41.9999998939602	0.058644387871027	
422	73.5908148142011	0.136627197265625	42.0999998937077	-0.0263976044952869	
423	73.6908148139486	0.137481689453125	42.1999998934552	0.0217691231518984	
424	73.7908148136961	0.13677978515625	42.2999998932028	-0.0234475824981928	
425	73.8908148134436	0.13543701171875	42.3999998929503	-0.0135802701115608	
426	73.9908148131912	0.13409423828125	42.4999998926978	-0.0112914610654116	
427	74.0908148129387	0.136444091796875	42.5999998924453	0.0542702190577984	
428	74.1908148126862	0.136383056640625	42.6999998921929	-0.0330097228288651	
429	74.2908148124337	0.139129638671875	42.7999998919404	0.0588987022638321	
430	74.3908148121812	0.13848876953125	42.8999998916879	-0.0439960062503815	
431	74.4908148119288	0.139739990234375	42.9999998914354	0.039570976048708	
432	74.5908148116763	0.139129638671875	43.099999891183	-0.0279234778136015	
433	74.6908148114238	0.13665771484375	43.1999998909305	-0.0340269692242146	
434	74.7908148111713	0.138519287109375	43.299999890678	0.0609331987798214	
435	74.8908148109189	0.137054443359375	43.3999998904255	-0.0568133406341076	
436	74.9908148106664	0.138214111328125	43.4999998901731	0.0445554926991463	
437	75.0908148104139	0.138397216796875	43.5999998899206	-0.0150552811101079	
438	75.1908148101614	0.139862060546875	43.6999998896681	0.0285846889019012	
439	75.290814809909	0.1396484375	43.7999998894156	-0.0203958377242088	
440	75.3908148096565	0.138397216796875	43.8999998891632	-0.0155639052391052	
441	75.490814809404	0.137664794921875	43.9999998889107	0.000457761925645173	
442	75.5908148091515	0.138580322265625	44.0999998886582	0.0211587734520435	
443	75.6908148088991	0.13873291015625	44.1999998884057	-0.0103250741958618	
444	75.7908148086466	0.138031005859375	44.2999998881533	-0.011596635915339	
445	75.8908148083941	0.13934326171875	44.3999998879008	0.03275540843606	
446	75.9908148081416	0.139739990234375	44.4999998876483	-0.0103759374469519	
447	76.0908148078892	0.14019775390625	44.5999998873958	0.00813798978924751	
448	76.1908148076367	0.138275146484375	44.6999998871433	-0.039265800267458	
449	76.2908148073842	0.137451171875	44.7999998868909	0.00885006412863731	
450	76.3908148071317	0.138092041015625	44.8999998866384	0.0149535564705729	
451	76.4908148068793	0.136688232421875	44.9999998863859	-0.0359597429633141	
452	76.5908148066268	0.1390380859375	45.0999998861334	0.0615944117307663	
453	76.6908148063743	0.138427734375	45.199999885881	-0.0432839319109917	
454	76.7908148061218	0.140716552734375	45.2999998856285	0.0569150671362877	
455	76.8908148058694	0.139862060546875	45.399999885376	-0.0444029085338116	
456	76.9908148056169	0.136199951171875	45.4999998851235	-0.0495400130748749	
457	77.0908148053644	0.13653564453125	45.5999998848711	0.0460305064916611	
458	77.1908148051119	0.13690185546875	45.6999998846186	-0.00940955057740211	
459	77.2908148048595	0.13677978515625	45.7999998843661	-0.00539141846820712	
460	77.390814804607	0.13824462890625	45.8999998841136	0.0295002125203609	
461	77.4908148043545	0.140045166015625	45.9999998838612	0.0155130429193377	
462	77.590814804102	0.140869140625	46.0999998836087	-0.00101724872365594	
463	77.6908148038495	0.140655517578125	46.1999998833562	-0.00752764055505395	
464	77.7908148035971	0.139068603515625	46.2999998831037	-0.0238544829189777	
465	77.8908148033446	0.1380615234375	46.3999998828513	-0.00066121167037636	
466	77.9908148030921	0.1380615234375	46.4999998825988	0.00645952951163054	
467	78.0908148028396	0.137969970703125	46.5999998823463	-0.00503538129851222	
468	78.1908148025872	0.138427734375	46.6999998820938	0.00946041289716959	
469	78.2908148023347	0.1390380859375	46.7999998818414	0.00554400542750955	
470	78.3908148020822	0.139068603515625	46.8999998815889	-0.00503538129851222	
471	78.4908148018297	0.1396484375	46.9999998813364	0.0123087093234062	
472	78.5908148015773	0.1376953125	47.0999998810839	-0.0424701347947121	
473	78.6908148013248	0.137359619140625	47.1999998808315	0.0185647886246443	
474	78.7908148010723	0.136566162109375	47.299999880579	-0.0171406418085098	
475	78.8908148008198	0.137725830078125	47.3999998803265	0.029398487880826	
476	78.9908148005674	0.13726806640625	47.499999880074	-0.0245665572583675	
477	79.0908148003149	0.13775634765625	47.5999998798216	0.0181578900665045	
478	79.1908148000624	0.138519287109375	47.6999998795691	0.00676470389589667	
479	79.2908147998099	0.13836669921875	47.7999998793166	-0.0100707625970244	
480	79.3908147995575	0.13897705078125	47.8999998790641	0.0155130429193377	
481	79.490814799305	0.137054443359375	47.9999998788116	-0.0428770333528519	
482	79.5908147990525	0.135772705078125	48.0999998785592	0.000966386287473142	
483	79.6908147988	0.1363525390625	48.1999998783067	0.0191751383244991	
484	79.7908147985476	0.1365966796875	48.2999998780542	-0.00656125415116549	
485	79.8908147982951	0.136749267578125	48.3999998778017	0.00188191013876349	
486	79.9908147980426	0.138885498046875	48.4999998775493	0.0381976887583733	
487	80.0908147977901	0.139862060546875	48.5999998772968	-0.00651039183139801	
488	80.1908147975377	0.139129638671875	48.6999998770443	-0.0177001282572746	
489	80.2908147972852	0.139312744140625	48.7999998767918	0.0151570057496428	
490	80.3908147970327	0.138763427734375	48.8999998765394	-0.0146483816206455	
491	80.4908147967802	0.13848876953125	48.9999998762869	0.0019836351275444	
492	80.5908147965278	0.138397216796875	49.0999998760344	-0.000305174617096782	
493	80.6908147962753	0.140716552734375	49.1999998757819	0.042673584073782	
494	80.7908147960228	0.1397705078125	49.2999998755295	-0.0447080805897713	
495	80.8908147957703	0.139404296875	49.399999875277	0.0120543977245688	
496	80.9908147955178	0.138214111328125	49.4999998750245	-0.0207010116428137	
497	81.0908147952654	0.13818359375	49.599999874772	0.0121052600443363	
498	81.1908147950129	0.13812255859375	49.6999998745196	-0.00473020644858479	
499	81.2908147947604	0.138092041015625	49.7999998742671	5.0862436182797E-05	
500	81.3908147945079	0.13885498046875	49.8999998740146	0.0141397574916482	
501	81.4908147942555	0.137359619140625	49.9999998737621	-0.0364175029098988	
502	81.590814794003	0.1375732421875	50.0999998735097	0.0239053443074226	
503	81.6908147937505	0.136444091796875	50.1999998732572	-0.0281777903437614	
504	81.790814793498	0.1375732421875	50.2999998730047	0.0345864556729794	
505	81.8908147932456	0.137237548828125	50.3999998727522	-0.0230915453284979	
506	81.9908147929931	0.136505126953125	50.4999998724998	-0.00574745517224073	
507	82.0908147927406	0.13543701171875	50.5999998722473	-0.0121561223641038	
508	82.1908147924881	0.135589599609375	50.6999998719948	0.0128173343837261	
509	82.2908147922357	0.136505126953125	50.7999998717423	0.011444048024714	
510	82.3908147919832	0.137115478515625	50.8999998714899	0.00101724872365594	
511	82.4908147917307	0.136871337890625	50.9999998712374	-0.00854488927870989	
512	82.5908147914782	0.137847900390625	51.0999998709849	0.022786371409893	
513	82.6908147912258	0.13824462890625	51.1999998707324	-0.00493365619331598	
514	82.7908147909733	0.1375732421875	51.29999987048	-0.0136819956824183	
515	82.8908147907208	0.13751220703125	51.3999998702275	0.00803626514971256	
516	82.9908147904683	0.136199951171875	51.499999869975	-0.0255838055163622	
517	83.0908147902159	0.136322021484375	51.5999998697225	0.0173440910875797	
518	83.1908147899634	0.136932373046875	51.69999986947	0.00539141846820712	
519	83.2908147897109	0.13800048828125	51.7999998692176	0.0128681967034936	
520	83.3908147894584	0.138214111328125	51.8999998689651	-0.00651039183139801	
521	83.490814789206	0.136322021484375	51.9999998687126	-0.0336200706660748	
522	83.5908147889535	0.13629150390625	52.0999998684601	0.0222268849611282	
523	83.690814788701	0.1351318359375	52.1999998682077	-0.0272114034742117	
524	83.7908147884485	0.13665771484375	52.2999998679552	0.0414020232856274	
525	83.8908147881961	0.135894775390625	52.3999998677027	-0.0356545671820641	
526	83.9908147879436	0.1385498046875	52.4999998674502	0.0626625195145607	
527	84.0908147876911	0.137451171875	52.5999998671978	-0.0536598712205887	
528	84.1908147874386	0.137298583984375	52.6999998669453	0.0188699644058943	
529	84.2908147871862	0.13702392578125	52.7999998666928	-0.00691729132086039	
530	84.3908147869337	0.13848876953125	52.8999998664403	0.029551075771451	
531	84.4908147866812	0.1370849609375	52.9999998661879	-0.0437416955828667	
532	84.5908147864287	0.13525390625	53.0999998659354	-0.0123087093234062	
533	84.6908147861762	0.137481689453125	53.1999998656829	0.0575254149734974	
534	84.7908147859238	0.137481689453125	53.2999998654304	-0.0320941954851151	
535	84.8908147856713	0.13970947265625	53.399999865178	0.0482684522867203	
536	84.9908147854188	0.138763427734375	53.4999998649255	-0.0433347970247269	
537	85.0908147851663	0.1383056640625	53.599999864673	0.0100707625970244	
538	85.1908147849139	0.13787841796875	53.6999998644205	-0.00564573053270578	
539	85.2908147846614	0.138824462890625	53.7999998641681	0.0208027362823486	
540	85.3908147844089	0.13739013671875	53.8999998639156	-0.0387571752071381	
541	85.4908147841564	0.137664794921875	53.9999998636631	0.0249225944280624	
542	85.590814783904	0.139312744140625	54.0999998634106	0.0222268849611282	
543	85.6908147836515	0.1392822265625	54.1999998631582	-0.0188699644058943	
544	85.790814783399	0.139373779296875	54.2999998629057	0.00752764055505395	
545	85.8908147831465	0.13861083984375	54.3999998626532	-0.0151570057496428	
546	85.9908147828941	0.137969970703125	54.4999998624007	-0.00254312180913985	
547	86.0908147826416	0.139373779296875	54.5999998621483	0.0306700486689806	
548	86.1908147823891	0.140716552734375	54.6999998618958	0.00610349234193563	
549	86.2908147821366	0.1409912109375	54.7999998616433	-0.00595090491697192	
550	86.3908147818842	0.139068603515625	54.8999998613908	-0.0339761078357697	
551	86.4908147816317	0.13897705078125	54.9999998611383	0.0216673985123634	
552	86.5908147813792	0.139862060546875	55.0999998608859	0.0108845615759492	
553	86.6908147811267	0.138641357421875	55.1999998606334	-0.0330097228288651	
554	86.7908147808743	0.137359619140625	55.2999998603809	-0.00630694208666682	
555	86.8908147806218	0.138092041015625	55.3999998601284	0.0243122447282076	
556	86.9908147803693	0.138946533203125	55.499999859876	0.00284829642623663	
557	87.0908147801168	0.13897705078125	55.5999998596235	-0.00696815364062786	
558	87.1908147798644	0.139801025390625	55.699999859371	0.0175984036177397	
559	87.2908147796119	0.141021728515625	55.7999998591185	0.0128681967034936	
560	87.3908147793594	0.140716552734375	55.8999998588661	-0.0170897785574198	
561	87.4908147791069	0.14141845703125	55.9999998586136	0.0204975623637438	
562	87.5908147788545	0.139251708984375	56.0999998583611	-0.0489296652376652	
563	87.690814778602	0.14013671875	56.1999998581086	0.0438434183597565	
564	87.7908147783495	0.139678955078125	56.2999998578562	-0.0259398426860571	
565	87.890814778097	0.139862060546875	56.3999998576037	0.0116474982351065	
566	87.9908147778445	0.139495849609375	56.4999998573512	-0.0103759374469519	
567	88.0908147775921	0.14068603515625	56.5999998570987	0.0267027784138918	
568	88.1908147773396	0.141204833984375	56.6999998568463	-0.00559486821293831	
569	88.2908147770871	0.139984130859375	56.7999998565938	-0.0244648326188326	
570	88.3908147768346	0.14111328125	56.8999998563413	0.0366718173027039	
571	88.4908147765822	0.140594482421875	56.9999998560888	-0.0267536416649818	
572	88.5908147763297	0.14044189453125	57.0999998558364	0.00701901642605662	
573	88.6908147760772	0.140411376953125	57.1999998555839	-0.00050862436182797	
574	88.7908147758247	0.138092041015625	57.2999998553314	-0.042673584073782	
575	88.8908147755723	0.140777587890625	57.3999998550789	0.0761919319629669	
576	88.9908147753198	0.14056396484375	57.4999998548265	-0.042978759855032	
577	89.0908147750673	0.138427734375	57.599999854574	-0.0277200285345316	
578	89.1908147748148	0.137939453125	57.6999998543215	0.0152587313205004	
579	89.2908147745624	0.13824462890625	57.799999854069	0.00417071999981999	
580	89.3908147743099	0.137359619140625	57.8999998538166	-0.0214130859822035	
581	89.4908147740574	0.13739013671875	57.9999998535641	0.0119018098339438	
582	89.5908147738049	0.138671875	58.0999998533116	0.0201923865824938	
583	89.6908147735525	0.138427734375	58.1999998530591	-0.0193277262151241	
584	89.7908147733	0.138580322265625	58.2999998528066	0.00991817470639944	
585	89.8908147730475	0.13677978515625	58.3999998525542	-0.0356037057936192	
586	89.990814772795	0.137481689453125	58.4999998523017	0.0343830063939095	
587	90.0908147725426	0.136962890625	58.5999998520492	-0.0237018950283527	
588	90.1908147722901	0.137603759765625	58.6999998517967	0.0201415251940489	
589	90.2908147720376	0.13836669921875	58.7999998515443	0.00478106923401356	
590	90.3908147717851	0.139801025390625	58.8999998512918	0.019531175494194	
591	90.4908147715327	0.139251708984375	58.9999998510393	-0.0242613814771175	
592	90.5908147712802	0.140869140625	59.0999998507868	0.0408425368368626	
593	90.6908147710277	0.139678955078125	59.1999998505344	-0.042520996183157	
594	90.7908147707752	0.137054443359375	59.2999998502819	-0.0288390014320612	
595	90.8908147705228	0.13629150390625	59.3999998500294	0.0126647464931011	
596	90.9908147702703	0.137603759765625	59.4999998497769	0.0242105200886726	
597	91.0908147700178	0.13671875	59.5999998495245	-0.0340778306126595	
598	91.1908147697653	0.1365966796875	59.699999849272	0.0124612972140312	
599	91.2908147695128	0.137786865234375	59.7999998490195	0.0202941112220287	
600	91.3908147692604	0.138031005859375	59.899999848767	-0.00981645006686449	
