Index	Potential applied (V)	Time (s)	WE(1).Current (A)	WE(1).Potential (V)
1	0.00244140625	235.181186406225	-0.0046539306640625	0.00264587402343749
2	0.0048828125	235.205586406163	-0.0047015380859375	0.00514831542968749
3	0.00732421875	235.229986406101	-0.004661865234375	0.007550048828125
4	0.009765625	235.25438640604	-0.00468231201171875	0.010009765625
5	0.01220703125	235.278786405978	-0.00468109130859375	0.012457275390625
6	0.0146484375	235.303186405917	-0.0046600341796875	0.0148651123046875
7	0.01708984375	235.327586405855	-0.0046966552734375	0.017376708984375
8	0.01953125	235.351986405793	-0.0046466064453125	0.0197113037109375
9	0.02197265625	235.376386405732	-0.00469635009765625	0.02222900390625
10	0.0244140625	235.40078640567	-0.00465057373046875	0.0246429443359375
11	0.02685546875	235.425186405609	-0.00467987060546875	0.0271026611328125
12	0.029296875	235.449586405547	-0.00466796875	0.029522705078125
13	0.03173828125	235.473986405485	-0.00465606689453125	0.0319366455078125
14	0.0341796875	235.498386405424	-0.00468597412109375	0.0344390869140625
15	0.03662109375	235.522786405362	-0.00463958740234375	0.03682861328125
16	0.0390625	235.547186405301	-0.00469024658203125	0.0393463134765625
17	0.04150390625	235.571586405239	-0.0046392822265625	0.0417144775390625
18	0.0439453125	235.595986405177	-0.00467681884765625	0.0441925048828125
19	0.04638671875	235.620386405116	-0.00465545654296875	0.0466278076171875
20	0.048828125	235.644786405054	-0.0046539306640625	0.049774169921875
21	0.05126953125	235.669186404993	-0.0046759033203125	0.05224609375
22	0.0537109375	235.693586404931	-0.0046343994140625	0.05462646484375
23	0.05615234375	235.717986404869	-0.004683837890625	0.05712890625
24	0.05859375	235.742386404808	-0.00463043212890625	0.0595703125
25	0.06103515625	235.766786404746	-0.0046734619140625	0.061981201171875
26	0.0634765625	235.791186404684	-0.0046441650390625	0.064453125
27	0.06591796875	235.815586404623	-0.0046514892578125	0.066864013671875
28	0.068359375	235.839986404561	-0.0046636962890625	0.069305419921875
29	0.07080078125	235.8643864045	-0.004630126953125	0.071685791015625
30	0.0732421875	235.888786404438	-0.00467559814453125	0.07421875
31	0.07568359375	235.913186404376	-0.00462249755859375	0.076568603515625
32	0.078125	235.937586404315	-0.00467041015625	0.079010009765625
33	0.08056640625	235.961986404253	-0.0046319580078125	0.081512451171875
34	0.0830078125	235.986386404192	-0.00465057373046875	0.083953857421875
35	0.08544921875	236.01078640413	-0.00465301513671875	0.08642578125
36	0.087890625	236.035186404068	-0.004627685546875	0.08880615234375
37	0.09033203125	236.059586404007	-0.0046685791015625	0.091278076171875
38	0.0927734375	236.083986403945	-0.0046160888671875	0.09368896484375
39	0.09521484375	236.108386403884	-0.0046673583984375	0.096221923828125
40	0.09765625	236.132786403822	-0.0046221923828125	0.09857177734375
41	0.10009765625	236.15718640376	-0.00465057373046875	0.10101318359375
42	0.1025390625	236.181586403699	-0.00464141845703125	0.103515625
43	0.10498046875	236.205986403637	-0.0046270751953125	0.105865478515625
44	0.107421875	236.230386403576	-0.00466033935546875	0.108428955078125
45	0.10986328125	236.254786403514	-0.00461212158203125	0.1107177734375
46	0.1123046875	236.279186403452	-0.0046649169921875	0.11322021484375
47	0.11474609375	236.303586403391	-0.00461395263671875	0.11566162109375
48	0.1171875	236.327986403329	-0.0046502685546875	0.118072509765625
49	0.11962890625	236.352386403268	-0.00463104248046875	0.120574951171875
50	0.1220703125	236.376786403206	-0.00462615966796875	0.12298583984375
51	0.12451171875	236.401186403144	-0.00465057373046875	0.12548828125
52	0.126953125	236.425586403083	-0.00460784912109375	0.127838134765625
53	0.12939453125	236.449986403021	-0.004659423828125	0.130401611328125
54	0.1318359375	236.47438640296	-0.004605712890625	0.132720947265625
55	0.13427734375	236.498786402898	-0.00464874267578125	0.1351318359375
56	0.13671875	236.523186402836	-0.004620361328125	0.137664794921875
57	0.13916015625	236.547586402775	-0.00462615966796875	0.140045166015625
58	0.1416015625	236.571986402713	-0.00464080810546875	0.142547607421875
59	0.14404296875	236.596386402652	-0.0046051025390625	0.144866943359375
60	0.146484375	236.62078640259	-0.00465301513671875	0.14739990234375
61	0.14892578125	236.645186402528	-0.00459808349609375	0.149810791015625
62	0.1513671875	236.669586402467	-0.00464691162109375	0.15228271484375
63	0.15380859375	236.693986402405	-0.00460906982421875	0.154693603515625
64	0.15625	236.718386402344	-0.00462615966796875	0.157135009765625
65	0.15869140625	236.742786402282	-0.0046307373046875	0.159637451171875
66	0.1611328125	236.76718640222	-0.00460418701171875	0.1619873046875
67	0.16357421875	236.791586402159	-0.0046466064453125	0.16455078125
68	0.166015625	236.815986402097	-0.00459228515625	0.166839599609375
69	0.16845703125	236.840386402036	-0.00464508056640625	0.169403076171875
70	0.1708984375	236.864786401974	-0.0045989990234375	0.171844482421875
71	0.17333984375	236.889186401912	-0.0046270751953125	0.174224853515625
72	0.17578125	236.913586401851	-0.004619140625	0.176727294921875
73	0.17822265625	236.937986401789	-0.00460205078125	0.1790771484375
74	0.1806640625	236.962386401727	-0.004637451171875	0.181610107421875
75	0.18310546875	236.986786401666	-0.0045867919921875	0.183929443359375
76	0.185546875	237.011186401604	-0.0046405029296875	0.18646240234375
77	0.18798828125	237.035586401543	-0.00458953857421875	0.188873291015625
78	0.1904296875	237.059986401481	-0.00462646484375	0.1912841796875
79	0.19287109375	237.084386401419	-0.00460784912109375	0.193817138671875
80	0.1953125	237.108786401358	-0.0046026611328125	0.19610595703125
81	0.19775390625	237.133186401296	-0.00462860107421875	0.198638916015625
82	0.2001953125	237.157586401235	-0.004583740234375	0.201019287109375
83	0.20263671875	237.181986401173	-0.00463653564453125	0.20355224609375
84	0.205078125	237.206386401111	-0.00458099365234375	0.205902099609375
85	0.20751953125	237.23078640105	-0.00462554931640625	0.2083740234375
86	0.2099609375	237.255186400988	-0.00459625244140625	0.2108154296875
87	0.21240234375	237.279586400927	-0.00460235595703125	0.2132568359375
88	0.21484375	237.303986400865	-0.004617919921875	0.21575927734375
89	0.21728515625	237.328386400803	-0.00458099365234375	0.218109130859375
90	0.2197265625	237.352786400742	-0.00463043212890625	0.220611572265625
91	0.22216796875	237.37718640068	-0.004573974609375	0.2230224609375
92	0.224609375	237.401586400619	-0.0046240234375	0.225494384765625
93	0.22705078125	237.425986400557	-0.0045855712890625	0.2279052734375
94	0.2294921875	237.450386400495	-0.00460235595703125	0.230316162109375
95	0.23193359375	237.474786400434	-0.00460662841796875	0.232818603515625
96	0.234375	237.499186400372	-0.00457916259765625	0.23516845703125
97	0.23681640625	237.523586400311	-0.00462249755859375	0.23773193359375
98	0.2392578125	237.547986400249	-0.00456756591796875	0.240081787109375
99	0.24169921875	237.572386400187	-0.00462066650390625	0.24261474609375
100	0.244140625	237.596786400126	-0.00457427978515625	0.2449951171875
101	0.24658203125	237.621186400064	-0.00460296630859375	0.247467041015625
102	0.2490234375	237.645586400003	-0.0045953369140625	0.24993896484375
103	0.25146484375	237.669986399941	-0.00457855224609375	0.252288818359375
104	0.25390625	237.694386399879	-0.00461456298828125	0.25482177734375
105	0.25634765625	237.718786399818	-0.00456298828125	0.25714111328125
106	0.2587890625	237.743186399756	-0.004617919921875	0.259674072265625
107	0.26123046875	237.767586399695	-0.00456573486328125	0.262054443359375
108	0.263671875	237.791986399633	-0.0046026611328125	0.2645263671875
109	0.26611328125	237.816386399571	-0.0045831298828125	0.26690673828125
110	0.2685546875	237.84078639951	-0.00457855224609375	0.269378662109375
111	0.27099609375	237.865186399448	-0.00460418701171875	0.271881103515625
112	0.2734375	237.889586399387	-0.00455902099609375	0.27423095703125
113	0.27587890625	237.913986399325	-0.00461212158203125	0.276763916015625
114	0.2783203125	237.938386399263	-0.00455596923828125	0.279144287109375
115	0.28076171875	237.962786399202	-0.0046014404296875	0.281585693359375
116	0.283203125	237.98718639914	-0.00457183837890625	0.2840576171875
117	0.28564453125	238.011586399079	-0.004578857421875	0.286407470703125
118	0.2880859375	238.035986399017	-0.0045941162109375	0.288970947265625
119	0.29052734375	238.060386398955	-0.0045574951171875	0.291351318359375
120	0.29296875	238.084786398894	-0.00460693359375	0.293853759765625
121	0.29541015625	238.109186398832	-0.0045489501953125	0.2962646484375
122	0.2978515625	238.13358639877	-0.0046002197265625	0.29864501953125
123	0.30029296875	238.157986398709	-0.00456085205078125	0.301116943359375
124	0.302734375	238.182386398647	-0.00457855224609375	0.303497314453125
125	0.30517578125	238.206786398586	-0.00458221435546875	0.306060791015625
126	0.3076171875	238.231186398524	-0.004554443359375	0.30841064453125
127	0.31005859375	238.255586398462	-0.004598388671875	0.31097412109375
128	0.3125	238.279986398401	-0.00454132080078125	0.31329345703125
129	0.31494140625	238.304386398339	-0.00459716796875	0.31573486328125
130	0.3173828125	238.328786398278	-0.00454864501953125	0.3182373046875
131	0.31982421875	238.353186398216	-0.00457733154296875	0.320648193359375
132	0.322265625	238.377586398154	-0.004569091796875	0.323089599609375
133	0.32470703125	238.401986398093	-0.004552001953125	0.32550048828125
134	0.3271484375	238.426386398031	-0.00458709716796875	0.32806396484375
135	0.32958984375	238.45078639797	-0.00453460693359375	0.33038330078125
136	0.33203125	238.475186397908	-0.0045916748046875	0.332855224609375
137	0.33447265625	238.499586397846	-0.00453643798828125	0.3353271484375
138	0.3369140625	238.523986397785	-0.00457611083984375	0.33770751953125
139	0.33935546875	238.548386397723	-0.00455596923828125	0.340240478515625
140	0.341796875	238.572786397662	-0.00455047607421875	0.34259033203125
141	0.34423828125	238.5971863976	-0.0045770263671875	0.3450927734375
142	0.3466796875	238.621586397538	-0.00453033447265625	0.347412109375
143	0.34912109375	238.645986397477	-0.0045849609375	0.350006103515625
144	0.3515625	238.670386397415	-0.0045269775390625	0.35235595703125
145	0.35400390625	238.694786397354	-0.00457366943359375	0.354827880859375
146	0.3564453125	238.719186397292	-0.00454254150390625	0.357269287109375
147	0.35888671875	238.74358639723	-0.00455047607421875	0.359771728515625
148	0.361328125	238.767986397169	-0.0045654296875	0.362213134765625
149	0.36376953125	238.792386397107	-0.0045263671875	0.364532470703125
150	0.3662109375	238.816786397046	-0.00457733154296875	0.3670654296875
151	0.36865234375	238.841186396984	-0.00451812744140625	0.369384765625
152	0.37109375	238.865586396922	-0.004571533203125	0.3719482421875
153	0.37353515625	238.889986396861	-0.00453033447265625	0.374359130859375
154	0.3759765625	238.914386396799	-0.00454925537109375	0.376800537109375
155	0.37841796875	238.938786396738	-0.0045526123046875	0.3792724609375
156	0.380859375	238.963186396676	-0.0045245361328125	0.38153076171875
157	0.38330078125	238.987586396614	-0.00456878662109375	0.384124755859375
158	0.3857421875	239.011986396553	-0.0045111083984375	0.386505126953125
159	0.38818359375	239.036386396491	-0.00456787109375	0.3890380859375
160	0.390625	239.06078639643	-0.004517822265625	0.391448974609375
161	0.39306640625	239.085186396368	-0.00454833984375	0.39385986328125
162	0.3955078125	239.109586396306	-0.0045391845703125	0.3963623046875
163	0.39794921875	239.133986396245	-0.0045233154296875	0.398681640625
164	0.400390625	239.158386396183	-0.004559326171875	0.4012451171875
165	0.40283203125	239.182786396122	-0.00450469970703125	0.403564453125
166	0.4052734375	239.20718639606	-0.00456298828125	0.40606689453125
167	0.40771484375	239.231586395998	-0.00450653076171875	0.40850830078125
168	0.41015625	239.255986395937	-0.0045477294921875	0.41094970703125
169	0.41259765625	239.280386395875	-0.0045263671875	0.413421630859375
170	0.4150390625	239.304786395813	-0.00452178955078125	0.41583251953125
171	0.41748046875	239.329186395752	-0.0045477294921875	0.4183349609375
172	0.419921875	239.35358639569	-0.004500732421875	0.420654296875
173	0.42236328125	239.377986395629	-0.00455657958984375	0.4232177734375
174	0.4248046875	239.402386395567	-0.004495849609375	0.425537109375
175	0.42724609375	239.426786395505	-0.004544677734375	0.42803955078125
176	0.4296875	239.451186395444	-0.004510498046875	0.43048095703125
177	0.43212890625	239.475586395382	-0.00451904296875	0.432861328125
178	0.4345703125	239.499986395321	-0.00453277587890625	0.435394287109375
179	0.43701171875	239.524386395259	-0.00449432373046875	0.437774658203125
180	0.439453125	239.548786395197	-0.0045465087890625	0.44024658203125
181	0.44189453125	239.573186395136	-0.0044854736328125	0.44268798828125
182	0.4443359375	239.597586395074	-0.00454010009765625	0.44512939453125
183	0.44677734375	239.621986395013	-0.004495849609375	0.447540283203125
184	0.44921875	239.646386394951	-0.0045172119140625	0.449981689453125
185	0.45166015625	239.670786394889	-0.00451873779296875	0.4525146484375
186	0.4541015625	239.695186394828	-0.00449005126953125	0.454864501953125
187	0.45654296875	239.719586394766	-0.0045355224609375	0.4573974609375
188	0.458984375	239.743986394705	-0.00447509765625	0.459686279296875
189	0.46142578125	239.768386394643	-0.0045330810546875	0.462158203125
190	0.4638671875	239.792786394581	-0.00447998046875	0.464569091796875
191	0.46630859375	239.81718639452	-0.00451171875	0.467041015625
192	0.46875	239.841586394458	-0.00449951171875	0.469573974609375
193	0.47119140625	239.865986394397	-0.004483642578125	0.471923828125
194	0.4736328125	239.890386394335	-0.00451995849609375	0.47442626953125
195	0.47607421875	239.914786394273	-0.0044647216796875	0.476776123046875
196	0.478515625	239.939186394212	-0.00452362060546875	0.47930908203125
197	0.48095703125	239.96358639415	-0.0044635009765625	0.481689453125
198	0.4833984375	239.987986394089	-0.00450592041015625	0.484161376953125
199	0.48583984375	240.012386394027	-0.00448089599609375	0.486602783203125
200	0.48828125	240.036786393965	-0.00447845458984375	0.488983154296875
201	0.49072265625	240.061186393904	-0.00450347900390625	0.491485595703125
202	0.4931640625	240.085586393842	-0.00445526123046875	0.493865966796875
203	0.49560546875	240.109986393781	-0.00451202392578125	0.496368408203125
204	0.498046875	240.134386393719	-0.0044488525390625	0.49871826171875
205	0.50048828125	240.158786393657	-0.0045001220703125	0.501220703125
206	0.5029296875	240.183186393596	-0.004462890625	0.503692626953125
207	0.50537109375	240.207586393534	-0.0044732666015625	0.50604248046875
208	0.5078125	240.231986393473	-0.00448516845703125	0.508575439453125
209	0.51025390625	240.256386393411	-0.00444671630859375	0.51092529296875
210	0.5126953125	240.280786393349	-0.004498291015625	0.51348876953125
211	0.51513671875	240.305186393288	-0.00443359375	0.515777587890625
212	0.517578125	240.329586393226	-0.0044903564453125	0.518310546875
213	0.52001953125	240.353986393165	-0.004442138671875	0.52069091796875
214	0.5224609375	240.378386393103	-0.00446563720703125	0.523193359375
215	0.52490234375	240.402786393041	-0.004464111328125	0.525634765625
216	0.52734375	240.42718639298	-0.00443695068359375	0.527984619140625
217	0.52978515625	240.451586392918	-0.00448150634765625	0.530548095703125
218	0.5322265625	240.475986392856	-0.00441925048828125	0.53289794921875
219	0.53466796875	240.500386392795	-0.0044805908203125	0.535369873046875
220	0.537109375	240.524786392733	-0.00442291259765625	0.537841796875
221	0.53955078125	240.549186392672	-0.00445892333984375	0.540252685546875
222	0.5419921875	240.57358639261	-0.00444244384765625	0.542694091796875
223	0.54443359375	240.597986392548	-0.004427490234375	0.54510498046875
224	0.546875	240.622386392487	-0.004462890625	0.547607421875
225	0.54931640625	240.646786392425	-0.0044061279296875	0.549957275390625
226	0.5517578125	240.671186392364	-0.00446685791015625	0.552459716796875
227	0.55419921875	240.695586392302	-0.00440338134765625	0.554931640625
228	0.556640625	240.71998639224	-0.00444976806640625	0.557281494140625
229	0.55908203125	240.744386392179	-0.00441986083984375	0.55975341796875
230	0.5615234375	240.768786392117	-0.0044189453125	0.5621337890625
231	0.56396484375	240.793186392056	-0.00444183349609375	0.564697265625
232	0.56640625	240.817586391994	-0.00439178466796875	0.56707763671875
233	0.56884765625	240.841986391932	-0.00444854736328125	0.569580078125
234	0.5712890625	240.866386391871	-0.00438079833984375	0.571929931640625
235	0.57373046875	240.890786391809	-0.00443603515625	0.57440185546875
236	0.576171875	240.915186391748	-0.00439361572265625	0.576812744140625
237	0.57861328125	240.939586391686	-0.00440673828125	0.5792236328125
238	0.5810546875	240.963986391624	-0.00441497802734375	0.58172607421875
239	0.58349609375	240.988386391563	-0.00437530517578125	0.58416748046875
240	0.5859375	241.012786391501	-0.00442901611328125	0.586639404296875
241	0.58837890625	241.03718639144	-0.0043609619140625	0.589019775390625
242	0.5908203125	241.061586391378	-0.00442138671875	0.591522216796875
243	0.59326171875	241.085986391316	-0.00436798095703125	0.59393310546875
244	0.595703125	241.110386391255	-0.00439544677734375	0.5963134765625
245	0.59814453125	241.134786391193	-0.00438995361328125	0.59881591796875
246	0.6005859375	241.159186391132	-0.00436279296875	0.60125732421875
247	0.60302734375	241.18358639107	-0.00440765380859375	0.60369873046875
248	0.60546875	241.207986391008	-0.00434051513671875	0.6060791015625
249	0.60791015625	241.232386390947	-0.00440399169921875	0.608551025390625
250	0.6103515625	241.256786390885	-0.0043408203125	0.61102294921875
251	0.61279296875	241.281186390824	-0.0043804931640625	0.613433837890625
252	0.615234375	241.305586390762	-0.00436004638671875	0.61590576171875
253	0.61767578125	241.3299863907	-0.00434661865234375	0.6182861328125
254	0.6201171875	241.354386390639	-0.00438018798828125	0.620849609375
255	0.62255859375	241.378786390577	-0.0043194580078125	0.6231689453125
256	0.625	241.403186390516	-0.00438323974609375	0.62567138671875
257	0.62744140625	241.427586390454	-0.0043121337890625	0.6280517578125
258	0.6298828125	241.451986390392	-0.00436279296875	0.6304931640625
259	0.63232421875	241.476386390331	-0.0043267822265625	0.63299560546875
260	0.634765625	241.500786390269	-0.0043280029296875	0.63531494140625
261	0.63720703125	241.525186390208	-0.0043487548828125	0.637847900390625
262	0.6396484375	241.549586390146	-0.00429595947265625	0.640228271484375
263	0.64208984375	241.573986390084	-0.00435699462890625	0.642730712890625
264	0.64453125	241.598386390023	-0.0042840576171875	0.645050048828125
265	0.64697265625	241.622786389961	-0.00434326171875	0.647613525390625
266	0.6494140625	241.6471863899	-0.00429290771484375	0.649993896484375
267	0.65185546875	241.671586389838	-0.00430877685546875	0.652435302734375
268	0.654296875	241.695986389776	-0.00431396484375	0.65496826171875
269	0.65673828125	241.720386389715	-0.0042718505859375	0.65728759765625
270	0.6591796875	241.744786389653	-0.00432647705078125	0.65985107421875
271	0.66162109375	241.769186389591	-0.004251708984375	0.662139892578125
272	0.6640625	241.79358638953	-0.00431610107421875	0.664703369140625
273	0.66650390625	241.817986389468	-0.0042547607421875	0.667083740234375
274	0.6689453125	241.842386389407	-0.00428436279296875	0.669525146484375
275	0.67138671875	241.866786389345	-0.0042730712890625	0.671966552734375
276	0.673828125	241.891186389283	-0.0042431640625	0.67431640625
277	0.67626953125	241.915586389222	-0.00428863525390625	0.676910400390625
278	0.6787109375	241.93998638916	-0.004217529296875	0.679229736328125
279	0.68115234375	241.964386389099	-0.0042840576171875	0.6817626953125
280	0.68359375	241.988786389037	-0.00421173095703125	0.68408203125
281	0.68603515625	242.013186388975	-0.00425537109375	0.686614990234375
282	0.6884765625	242.037586388914	-0.0042279052734375	0.6890869140625
283	0.69091796875	242.061986388852	-0.00421478271484375	0.69140625
284	0.693359375	242.086386388791	-0.00424591064453125	0.693939208984375
285	0.69580078125	242.110786388729	-0.0041802978515625	0.696258544921875
286	0.6982421875	242.135186388667	-0.004246826171875	0.698760986328125
287	0.70068359375	242.159586388606	-0.00416748046875	0.701171875
288	0.703125	242.183986388544	-0.0042230224609375	0.70361328125
289	0.70556640625	242.208386388483	-0.00417877197265625	0.7060546875
290	0.7080078125	242.232786388421	-0.00418060302734375	0.70843505859375
291	0.71044921875	242.257186388359	-0.004197998046875	0.71099853515625
292	0.712890625	242.281586388298	-0.00414031982421875	0.713348388671875
293	0.71533203125	242.305986388236	-0.004202880859375	0.7159423828125
294	0.7177734375	242.330386388175	-0.00411895751953125	0.71820068359375
295	0.72021484375	242.354786388113	-0.0041815185546875	0.720672607421875
296	0.72265625	242.379186388051	-0.0041229248046875	0.72314453125
297	0.72509765625	242.40358638799	-0.00414031982421875	0.7255859375
298	0.7275390625	242.427986387928	-0.0041412353515625	0.728057861328125
299	0.72998046875	242.452386387867	-0.004095458984375	0.73040771484375
300	0.732421875	242.476786387805	-0.00415008544921875	0.73297119140625
301	0.73486328125	242.501186387743	-0.00406463623046875	0.73529052734375
302	0.7373046875	242.525586387682	-0.004134521484375	0.73785400390625
303	0.73974609375	242.54998638762	-0.00406036376953125	0.740142822265625
304	0.7421875	242.574386387559	-0.0040924072265625	0.7425537109375
305	0.74462890625	242.598786387497	-0.00407501220703125	0.745147705078125
306	0.7470703125	242.623186387435	-0.00404327392578125	0.74749755859375
307	0.74951171875	242.647586387374	-0.00408538818359375	0.7489013671875
308	0.751953125	242.671986387312	-0.00400299072265625	0.75164794921875
309	0.75439453125	242.696386387251	-0.0040716552734375	0.7537841796875
310	0.7568359375	242.720786387189	-0.00398773193359375	0.75592041015625
311	0.75927734375	242.745186387127	-0.004034423828125	0.75836181640625
312	0.76171875	242.769586387066	-0.0039959716796875	0.7611083984375
313	0.76416015625	242.793986387004	-0.00398101806640625	0.76324462890625
314	0.7666015625	242.818386386943	-0.0040057373046875	0.76568603515625
315	0.76904296875	242.842786386881	-0.00393157958984375	0.76812744140625
316	0.771484375	242.867186386819	-0.0039971923828125	0.7708740234375
317	0.77392578125	242.891586386758	-0.00390472412109375	0.77301025390625
318	0.7763671875	242.915986386696	-0.0039605712890625	0.77606201171875
319	0.77880859375	242.940386386634	-0.00390472412109375	0.7781982421875
320	0.78125	242.964786386573	-0.00390533447265625	0.78033447265625
321	0.78369140625	242.989186386511	-0.00391326904296875	0.78338623046875
322	0.7861328125	243.01358638645	-0.003848876953125	0.784912109375
323	0.78857421875	243.037986386388	-0.0039056396484375	0.78765869140625
324	0.791015625	243.062386386326	-0.003809814453125	0.789794921875
325	0.79345703125	243.086786386265	-0.00387298583984375	0.79254150390625
326	0.7958984375	243.111186386203	-0.00379913330078125	0.79498291015625
327	0.79833984375	243.135586386142	-0.00381500244140625	0.79742431640625
328	0.80078125	243.15998638608	-0.00380157470703125	0.79986572265625
329	0.80322265625	243.184386386018	-0.003748779296875	0.8026123046875
330	0.8056640625	243.208786385957	-0.00379486083984375	0.8050537109375
331	0.80810546875	243.233186385895	-0.0036993408203125	0.8074951171875
332	0.810546875	243.257586385834	-0.003760986328125	0.80963134765625
333	0.81298828125	243.281986385772	-0.003675537109375	0.81207275390625
334	0.8154296875	243.30638638571	-0.00370208740234375	0.81451416015625
335	0.81787109375	243.330786385649	-0.003668212890625	0.816650390625
336	0.8203125	243.355186385587	-0.00363037109375	0.81939697265625
337	0.82275390625	243.379586385526	-0.00365997314453125	0.8221435546875
338	0.8251953125	243.403986385464	-0.00357025146484375	0.8245849609375
339	0.82763671875	243.428386385402	-0.0036297607421875	0.82672119140625
340	0.830078125	243.452786385341	-0.00353179931640625	0.82916259765625
341	0.83251953125	243.477186385279	-0.0035662841796875	0.83099365234375
342	0.8349609375	243.501586385218	-0.0035137939453125	0.833740234375
343	0.83740234375	243.525986385156	-0.00349151611328125	0.83648681640625
344	0.83984375	243.550386385094	-0.00350128173828125	0.838623046875
345	0.84228515625	243.574786385033	-0.00341796875	0.841064453125
346	0.8447265625	243.599186384971	-0.0034661865234375	0.843505859375
347	0.84716796875	243.62358638491	-0.0033648681640625	0.84686279296875
348	0.849609375	243.647986384848	-0.0034039306640625	0.8489990234375
349	0.85205078125	243.672386384786	-0.00333404541015625	0.85113525390625
350	0.8544921875	243.696786384725	-0.00332122802734375	0.85357666015625
351	0.85693359375	243.721186384663	-0.003309326171875	0.85662841796875
352	0.859375	243.745586384602	-0.0032379150390625	0.8587646484375
353	0.86181640625	243.76998638454	-0.00327239990234375	0.86151123046875
354	0.8642578125	243.794386384478	-0.00316986083984375	0.863037109375
355	0.86669921875	243.818786384417	-0.00320770263671875	0.8660888671875
356	0.869140625	243.843186384355	-0.00312255859375	0.86822509765625
357	0.87158203125	243.867586384294	-0.0031219482421875	0.87066650390625
358	0.8740234375	243.891986384232	-0.00308990478515625	0.8734130859375
359	0.87646484375	243.91638638417	-0.00302825927734375	0.87554931640625
360	0.87890625	243.940786384109	-0.0030438232421875	0.877685546875
361	0.88134765625	243.965186384047	-0.00294586181640625	0.880126953125
362	0.8837890625	243.989586383986	-0.00297821044921875	0.88287353515625
363	0.88623046875	244.013986383924	-0.002884521484375	0.885009765625
364	0.888671875	244.038386383862	-0.00288848876953125	0.887451171875
365	0.89111328125	244.062786383801	-0.0028375244140625	0.89019775390625
366	0.8935546875	244.087186383739	-0.0027874755859375	0.89263916015625
367	0.89599609375	244.111586383677	-0.00278564453125	0.89569091796875
368	0.8984375	244.135986383616	-0.002691650390625	0.89752197265625
369	0.90087890625	244.160386383554	-0.00271240234375	0.89996337890625
370	0.9033203125	244.184786383493	-0.00261474609375	0.902099609375
371	0.90576171875	244.209186383431	-0.0026202392578125	0.90484619140625
372	0.908203125	244.233586383369	-0.0025531005859375	0.90728759765625
373	0.91064453125	244.257986383308	-0.00251251220703125	0.9100341796875
374	0.9130859375	244.282386383246	-0.0024920654296875	0.911865234375
375	0.91552734375	244.306786383185	-0.0024066162109375	0.91461181640625
376	0.91796875	244.331186383123	-0.002418212890625	0.91705322265625
377	0.92041015625	244.355586383061	-0.00231689453125	0.91888427734375
378	0.9228515625	244.379986383	-0.00231964111328125	0.9222412109375
379	0.92529296875	244.404386382938	-0.002239990234375	0.92437744140625
380	0.927734375	244.428786382877	-0.00220916748046875	0.926513671875
381	0.93017578125	244.453186382815	-0.00217193603515625	0.928955078125
382	0.9326171875	244.477586382753	-0.00209381103515625	0.93170166015625
383	0.93505859375	244.501986382692	-0.0020892333984375	0.93414306640625
384	0.9375	244.52638638263	-0.00198974609375	0.93658447265625
385	0.93994140625	244.550786382569	-0.00199127197265625	0.93902587890625
386	0.9423828125	244.575186382507	-0.00190216064453125	0.941162109375
387	0.94482421875	244.599586382445	-0.001875	0.94390869140625
388	0.947265625	244.623986382384	-0.00182159423828125	0.946044921875
389	0.94970703125	244.648386382322	-0.00175445556640625	0.9490966796875
390	0.9521484375	244.672786382261	-0.00173736572265625	0.95123291015625
391	0.95458984375	244.697186382199	-0.0016387939453125	0.95428466796875
392	0.95703125	244.721586382137	-0.00163177490234375	0.955810546875
393	0.95947265625	244.745986382076	-0.0015374755859375	0.9588623046875
394	0.9619140625	244.770386382014	-0.00151458740234375	0.9613037109375
395	0.96435546875	244.794786381953	-0.00144805908203125	0.96282958984375
396	0.966796875	244.819186381891	-0.00138580322265625	0.965576171875
397	0.96923828125	244.843586381829	-0.0013543701171875	0.96832275390625
398	0.9716796875	244.867986381768	-0.0012628173828125	0.970458984375
399	0.97412109375	244.892386381706	-0.0012493896484375	0.97320556640625
400	0.9765625	244.916786381645	-0.00115081787109375	0.97564697265625
401	0.97900390625	244.941186381583	-0.0011248779296875	0.97808837890625
402	0.9814453125	244.965586381521	-0.00104766845703125	0.9808349609375
403	0.98388671875	244.98998638146	-0.00099456787109375	0.98297119140625
404	0.986328125	245.014386381398	-0.00095062255859375	0.98480224609375
405	0.98876953125	245.038786381337	-0.00086334228515625	0.9881591796875
406	0.9912109375	245.063186381275	-0.00083831787109375	0.9906005859375
407	0.99365234375	245.087586381213	-0.00073944091796875	0.9930419921875
408	0.99609375	245.111986381152	-0.00071533203125	0.99578857421875
409	0.99853515625	245.13638638109	-0.00062896728515625	0.997314453125
410	1.0009765625	245.160786381029	-0.00057952880859375	1.0003662109375
411	1.00341796875	245.185186380967	-0.00052154541015625	1.0028076171875
412	1.005859375	245.209586380905	-0.000442474365234375	1.004638671875
413	1.00830078125	245.233986380844	-0.000410430908203125	1.0076904296875
414	1.0107421875	245.258386380782	-0.000311187744140625	1.00982666015625
415	1.01318359375	245.28278638072	-0.000279510498046875	1.011962890625
416	1.015625	245.307186380659	-0.000189453125	1.0137939453125
417	1.01806640625	245.331586380597	-0.000143096923828125	1.0174560546875
418	1.0205078125	245.355986380536	-7.598876953125E-05	1.01959228515625
419	1.02294921875	245.380386380474	1.45263671875E-06	1.02142333984375
420	1.025390625	245.404786380412	4.4403076171875E-05	1.02386474609375
421	1.02783203125	245.429186380351	0.000139373779296875	1.026611328125
422	1.0302734375	245.453586380289	0.00017181396484375	1.02935791015625
423	1.03271484375	245.477986380228	0.0002684326171875	1.03179931640625
424	1.03515625	245.502386380166	0.00031646728515625	1.03485107421875
425	1.03759765625	245.526786380104	0.000393096923828125	1.036376953125
426	1.0400390625	245.551186380043	0.000462188720703125	1.03912353515625
427	1.04248046875	245.575586379981	0.00051422119140625	1.04217529296875
428	1.044921875	245.59998637992	0.00060821533203125	1.04400634765625
429	1.04736328125	245.624386379858	0.0006494140625	1.046142578125
430	1.0498046875	245.648786379796	0.0007476806640625	1.04888916015625
431	1.05224609375	245.673186379735	0.0007916259765625	1.05072021484375
432	1.0546875	245.697586379673	0.00087615966796875	1.0540771484375
433	1.05712890625	245.721986379612	0.0009442138671875	1.0565185546875
434	1.0595703125	245.74638637955	0.001007080078125	1.05865478515625
435	1.06201171875	245.770786379488	0.00109375	1.060791015625
436	1.064453125	245.795186379427	0.0011383056640625	1.0638427734375
437	1.06689453125	245.819586379365	0.00123809814453125	1.06658935546875
438	1.0693359375	245.843986379304	0.00128631591796875	1.06781005859375
439	1.07177734375	245.868386379242	0.0013775634765625	1.0711669921875
440	1.07421875	245.89278637918	0.00143798828125	1.07391357421875
441	1.07666015625	245.917186379119	0.0015087890625	1.0760498046875
442	1.0791015625	245.941586379057	0.00159515380859375	1.077880859375
443	1.08154296875	245.965986378996	0.0016497802734375	1.08062744140625
444	1.083984375	245.990386378934	0.00174652099609375	1.08306884765625
445	1.08642578125	246.014786378872	0.0017938232421875	1.08551025390625
446	1.0888671875	246.039186378811	0.00188873291015625	1.087646484375
447	1.09130859375	246.063586378749	0.00195098876953125	1.09039306640625
448	1.09375	246.087986378688	0.00202972412109375	1.09283447265625
449	1.09619140625	246.112386378626	0.00210906982421875	1.094970703125
450	1.0986328125	246.136786378564	0.00216888427734375	1.09771728515625
451	1.10107421875	246.161186378503	0.00226593017578125	1.09954833984375
452	1.103515625	246.185586378441	0.0023193359375	1.10260009765625
453	1.10595703125	246.20998637838	0.0024169921875	1.10443115234375
454	1.1083984375	246.234386378318	0.00247406005859375	1.107177734375
455	1.11083984375	246.258786378256	0.0025592041015625	1.10992431640625
456	1.11328125	246.283186378195	0.002637939453125	1.11236572265625
457	1.11572265625	246.307586378133	0.00270599365234375	1.11480712890625
458	1.1181640625	246.331986378072	0.0027978515625	1.116943359375
459	1.12060546875	246.35638637801	0.002852783203125	1.11968994140625
460	1.123046875	246.380786377948	0.0029522705078125	1.121826171875
461	1.12548828125	246.405186377887	0.00301300048828125	1.124267578125
462	1.1279296875	246.429586377825	0.00310272216796875	1.126708984375
463	1.13037109375	246.453986377763	0.003173828125	1.12884521484375
464	1.1328125	246.478386377702	0.003245849609375	1.13189697265625
465	1.13525390625	246.50278637764	0.00333709716796875	1.134033203125
466	1.1376953125	246.527186377579	0.00339813232421875	1.136474609375
467	1.14013671875	246.551586377517	0.0034930419921875	1.13861083984375
468	1.142578125	246.575986377455	0.00354888916015625	1.1419677734375
469	1.14501953125	246.600386377394	0.00363861083984375	1.1444091796875
470	1.1474609375	246.624786377332	0.003707275390625	1.14654541015625
471	1.14990234375	246.649186377271	0.00378143310546875	1.148681640625
472	1.15234375	246.673586377209	0.0038580322265625	1.15142822265625
473	1.15478515625	246.697986377147	0.0039154052734375	1.15386962890625
474	1.1572265625	246.722386377086	0.004000244140625	1.1566162109375
475	1.15966796875	246.746786377024	0.00405242919921875	1.15875244140625
476	1.162109375	246.771186376963	0.00412841796875	1.160888671875
477	1.16455078125	246.795586376901	0.0041790771484375	1.16363525390625
478	1.1669921875	246.819986376839	0.00424041748046875	1.165771484375
479	1.16943359375	246.844386376778	0.00429931640625	1.16851806640625
480	1.171875	246.868786376716	0.004346923828125	1.17095947265625
481	1.17431640625	246.893186376655	0.00440521240234375	1.173095703125
482	1.1767578125	246.917586376593	0.004442138671875	1.175537109375
483	1.17919921875	246.941986376531	0.00449737548828125	1.17828369140625
484	1.181640625	246.96638637647	0.0045343017578125	1.180419921875
485	1.18408203125	246.990786376408	0.00457977294921875	1.182861328125
486	1.1865234375	247.015186376347	0.0046173095703125	1.1859130859375
487	1.18896484375	247.039586376285	0.0046514892578125	1.18804931640625
488	1.19140625	247.063986376223	0.0046929931640625	1.190185546875
489	1.19384765625	247.088386376162	0.0047216796875	1.192626953125
490	1.1962890625	247.1127863761	0.00476043701171875	1.195068359375
491	1.19873046875	247.137186376039	0.00478546142578125	1.1981201171875
492	1.201171875	247.161586375977	0.00481903076171875	1.20025634765625
493	1.19873046875	247.185986375915	0.00478851318359375	1.197509765625
494	1.1962890625	247.210386375854	0.004757080078125	1.195068359375
495	1.19384765625	247.234786375792	0.00472686767578125	1.19293212890625
496	1.19140625	247.259186375731	0.0046868896484375	1.19049072265625
497	1.18896484375	247.283586375669	0.00465911865234375	1.187744140625
498	1.1865234375	247.307986375607	0.004615478515625	1.185302734375
499	1.18408203125	247.332386375546	0.0045831298828125	1.18316650390625
500	1.181640625	247.356786375484	0.00453704833984375	1.1810302734375
501	1.17919921875	247.381186375423	0.00449462890625	1.17767333984375
502	1.1767578125	247.405586375361	0.0044537353515625	1.17523193359375
503	1.17431640625	247.429986375299	0.0044000244140625	1.17340087890625
504	1.171875	247.454386375238	0.00435943603515625	1.170654296875
505	1.16943359375	247.478786375176	0.00429412841796875	1.16912841796875
506	1.1669921875	247.503186375115	0.00425079345703125	1.165771484375
507	1.16455078125	247.527586375053	0.0041851806640625	1.163330078125
508	1.162109375	247.551986374991	0.00412933349609375	1.160888671875
509	1.15966796875	247.57638637493	0.004066162109375	1.1590576171875
510	1.1572265625	247.600786374868	0.00399200439453125	1.15570068359375
511	1.15478515625	247.625186374807	0.0039385986328125	1.15386962890625
512	1.15234375	247.649586374745	0.00385406494140625	1.1505126953125
513	1.14990234375	247.673986374683	0.00379913330078125	1.148681640625
514	1.1474609375	247.698386374622	0.003709716796875	1.14593505859375
515	1.14501953125	247.72278637456	0.00364501953125	1.143798828125
516	1.142578125	247.747186374498	0.0035693359375	1.14166259765625
517	1.14013671875	247.771586374437	0.00348907470703125	1.13983154296875
518	1.1376953125	247.795986374375	0.00342437744140625	1.1370849609375
519	1.13525390625	247.820386374314	0.00332794189453125	1.134033203125
520	1.1328125	247.844786374252	0.003272705078125	1.1322021484375
521	1.13037109375	247.86918637419	0.00317840576171875	1.129150390625
522	1.1279296875	247.893586374129	0.0031158447265625	1.126708984375
523	1.12548828125	247.917986374067	0.00302978515625	1.124267578125
524	1.123046875	247.942386374006	0.002950439453125	1.121826171875
525	1.12060546875	247.966786373944	0.0028857421875	1.11968994140625
526	1.1181640625	247.991186373882	0.00279296875	1.116943359375
527	1.11572265625	248.015586373821	0.00273681640625	1.11480712890625
528	1.11328125	248.039986373759	0.0026361083984375	1.112060546875
529	1.11083984375	248.064386373698	0.0025799560546875	1.1102294921875
530	1.1083984375	248.088786373636	0.00249359130859375	1.10748291015625
531	1.10595703125	248.113186373574	0.00242279052734375	1.10504150390625
532	1.103515625	248.137586373513	0.00235076904296875	1.102294921875
533	1.10107421875	248.161986373451	0.00225830078125	1.099853515625
534	1.0986328125	248.18638637339	0.002205810546875	1.097412109375
535	1.09619140625	248.210786373328	0.00210784912109375	1.094970703125
536	1.09375	248.235186373266	0.00205535888671875	1.0931396484375
537	1.09130859375	248.259586373205	0.0019622802734375	1.090087890625
538	1.0888671875	248.283986373143	0.001895751953125	1.0882568359375
539	1.08642578125	248.308386373082	0.0018243408203125	1.08551025390625
540	1.083984375	248.33278637302	0.0017401123046875	1.0833740234375
541	1.08154296875	248.357186372958	0.00168609619140625	1.08062744140625
542	1.0791015625	248.381586372897	0.001585693359375	1.077880859375
543	1.07666015625	248.405986372835	0.0015399169921875	1.07574462890625
544	1.07421875	248.430386372774	0.00144683837890625	1.07330322265625
545	1.07177734375	248.454786372712	0.001390380859375	1.0711669921875
546	1.0693359375	248.47918637265	0.0013116455078125	1.06842041015625
547	1.06689453125	248.503586372589	0.00123260498046875	1.06658935546875
548	1.064453125	248.527986372527	0.0011798095703125	1.063232421875
549	1.06201171875	248.552386372466	0.00108428955078125	1.0614013671875
550	1.0595703125	248.576786372404	0.001041259765625	1.05804443359375
551	1.05712890625	248.601186372342	0.00094207763671875	1.05621337890625
552	1.0546875	248.625586372281	0.0008929443359375	1.0540771484375
553	1.05224609375	248.649986372219	0.00081329345703125	1.0516357421875
554	1.0498046875	248.674386372158	0.00074310302734375	1.04888916015625
555	1.04736328125	248.698786372096	0.00068572998046875	1.0467529296875
556	1.044921875	248.723186372034	0.0005926513671875	1.04339599609375
557	1.04248046875	248.747586371973	0.00055572509765625	1.041259765625
558	1.0400390625	248.771986371911	0.00045721435546875	1.03912353515625
559	1.03759765625	248.79638637185	0.0004161376953125	1.03668212890625
560	1.03515625	248.820786371788	0.000329620361328125	1.03424072265625
561	1.03271484375	248.845186371726	0.000268798828125	1.031494140625
562	1.0302734375	248.869586371665	0.0002113037109375	1.02935791015625
563	1.02783203125	248.893986371603	0.00012542724609375	1.02691650390625
564	1.025390625	248.918386371541	8.6883544921875E-05	1.0247802734375
565	1.02294921875	248.94278637148	-1.3189697265625E-05	1.02203369140625
566	1.0205078125	248.967186371418	-4.4586181640625E-05	1.01959228515625
567	1.01806640625	248.991586371357	-0.0001341552734375	1.01715087890625
568	1.015625	249.015986371295	-0.00018377685546875	1.01470947265625
569	1.01318359375	249.040386371233	-0.000250091552734375	1.01226806640625
570	1.0107421875	249.064786371172	-0.00033013916015625	1.0101318359375
571	1.00830078125	249.08918637111	-0.000363922119140625	1.00738525390625
572	1.005859375	249.113586371049	-0.000460174560546875	1.004638671875
573	1.00341796875	249.137986370987	-0.0004840087890625	1.002197265625
574	1.0009765625	249.162386370925	-0.00058197021484375	1.00006103515625
575	0.99853515625	249.186786370864	-0.0006201171875	0.99761962890625
576	0.99609375	249.211186370802	-0.0006878662109375	0.9954833984375
577	0.99365234375	249.235586370741	-0.0007550048828125	0.99365234375
578	0.9912109375	249.259986370679	-0.00079254150390625	0.99029541015625
579	0.98876953125	249.284386370617	-0.00088653564453125	0.987548828125
580	0.986328125	249.308786370556	-0.00090301513671875	0.985107421875
581	0.98388671875	249.333186370494	-0.00100006103515625	0.982666015625
582	0.9814453125	249.357586370433	-0.00102508544921875	0.980224609375
583	0.97900390625	249.381986370371	-0.0011029052734375	0.97808837890625
584	0.9765625	249.406386370309	-0.00115936279296875	0.97503662109375
585	0.97412109375	249.430786370248	-0.00119781494140625	0.9735107421875
586	0.9716796875	249.455186370186	-0.00128509521484375	0.97137451171875
587	0.96923828125	249.479586370125	-0.00130035400390625	0.9686279296875
588	0.966796875	249.503986370063	-0.00140228271484375	0.9661865234375
589	0.96435546875	249.528386370001	-0.00141448974609375	0.96343994140625
590	0.9619140625	249.55278636994	-0.00149658203125	0.96099853515625
591	0.95947265625	249.577186369878	-0.0015380859375	0.95855712890625
592	0.95703125	249.601586369817	-0.00158447265625	0.9564208984375
593	0.95458984375	249.625986369755	-0.00166473388671875	0.95367431640625
594	0.9521484375	249.650386369693	-0.0016729736328125	0.95123291015625
595	0.94970703125	249.674786369632	-0.00177215576171875	0.9490966796875
596	0.947265625	249.69918636957	-0.001773681640625	0.94635009765625
597	0.94482421875	249.723586369509	-0.0018646240234375	0.94390869140625
598	0.9423828125	249.747986369447	-0.00189178466796875	0.94146728515625
599	0.93994140625	249.772386369385	-0.00194122314453125	0.93902587890625
600	0.9375	249.796786369324	-0.0020074462890625	0.936279296875
601	0.93505859375	249.821186369262	-0.00201873779296875	0.93414306640625
602	0.9326171875	249.845586369201	-0.00211639404296875	0.93170166015625
603	0.93017578125	249.869986369139	-0.00210479736328125	0.928955078125
604	0.927734375	249.894386369077	-0.0022003173828125	0.92681884765625
605	0.92529296875	249.918786369016	-0.0022100830078125	0.924072265625
606	0.9228515625	249.943186368954	-0.0022705078125	0.9222412109375
607	0.92041015625	249.967586368893	-0.0023236083984375	0.91888427734375
608	0.91796875	249.991986368831	-0.002332763671875	0.91705322265625
609	0.91552734375	250.016386368769	-0.00242401123046875	0.9149169921875
610	0.9130859375	250.040786368708	-0.00240692138671875	0.9124755859375
611	0.91064453125	250.065186368646	-0.0025079345703125	0.909423828125
612	0.908203125	250.089586368584	-0.00249847412109375	0.906982421875
613	0.90576171875	250.113986368523	-0.002568359375	0.90484619140625
614	0.9033203125	250.138386368461	-0.00260345458984375	0.90240478515625
615	0.90087890625	250.1627863684	-0.002620849609375	0.899658203125
616	0.8984375	250.187186368338	-0.00270294189453125	0.89813232421875
617	0.89599609375	250.211586368276	-0.00267791748046875	0.89508056640625
618	0.8935546875	250.235986368215	-0.0027789306640625	0.89263916015625
619	0.89111328125	250.260386368153	-0.00275543212890625	0.89019775390625
620	0.888671875	250.284786368092	-0.0028363037109375	0.88775634765625
621	0.88623046875	250.30918636803	-0.0028509521484375	0.8856201171875
622	0.8837890625	250.333586367968	-0.0028753662109375	0.882568359375
623	0.88134765625	250.357986367907	-0.0029443359375	0.88043212890625
624	0.87890625	250.382386367845	-0.002918701171875	0.87799072265625
625	0.87646484375	250.406786367784	-0.0030218505859375	0.8758544921875
626	0.8740234375	250.431186367722	-0.00298248291015625	0.872802734375
627	0.87158203125	250.45558636766	-0.0030694580078125	0.8709716796875
628	0.869140625	250.479986367599	-0.00306396484375	0.86822509765625
629	0.86669921875	250.504386367537	-0.0031005859375	0.865478515625
630	0.8642578125	250.528786367476	-0.003154296875	0.86334228515625
631	0.86181640625	250.553186367414	-0.00313140869140625	0.86151123046875
632	0.859375	250.577586367352	-0.00322723388671875	0.85845947265625
633	0.85693359375	250.601986367291	-0.00317901611328125	0.855712890625
634	0.8544921875	250.626386367229	-0.00327545166015625	0.8538818359375
635	0.85205078125	250.650786367168	-0.0032489013671875	0.850830078125
636	0.849609375	250.675186367106	-0.0032989501953125	0.84869384765625
637	0.84716796875	250.699586367044	-0.003331298828125	0.845947265625
638	0.8447265625	250.723986366983	-0.00331695556640625	0.84381103515625
639	0.84228515625	250.748386366921	-0.00340423583984375	0.8416748046875
640	0.83984375	250.77278636686	-0.00334930419921875	0.83892822265625
641	0.83740234375	250.797186366798	-0.0034503173828125	0.83648681640625
642	0.8349609375	250.821586366736	-0.0034063720703125	0.833740234375
643	0.83251953125	250.845986366675	-0.0034698486328125	0.8319091796875
644	0.830078125	250.870386366613	-0.00348175048828125	0.828857421875
645	0.82763671875	250.894786366552	-0.00347808837890625	0.82611083984375
646	0.8251953125	250.91918636649	-0.003553466796875	0.82427978515625
647	0.82275390625	250.943586366428	-0.00349822998046875	0.821533203125
648	0.8203125	250.967986366367	-0.003599853515625	0.8197021484375
649	0.81787109375	250.992386366305	-0.00354248046875	0.8172607421875
650	0.8154296875	251.016786366244	-0.00361785888671875	0.81451416015625
651	0.81298828125	251.041186366182	-0.00360931396484375	0.8123779296875
652	0.810546875	251.06558636612	-0.00362152099609375	0.81024169921875
653	0.80810546875	251.089986366059	-0.003677978515625	0.80718994140625
654	0.8056640625	251.114386365997	-0.00362945556640625	0.80474853515625
655	0.80322265625	251.138786365936	-0.003726806640625	0.80230712890625
656	0.80078125	251.163186365874	-0.0036602783203125	0.79986572265625
657	0.79833984375	251.187586365812	-0.0037457275390625	0.7977294921875
658	0.7958984375	251.211986365751	-0.00371673583984375	0.7952880859375
659	0.79345703125	251.236386365689	-0.00374481201171875	0.7928466796875
660	0.791015625	251.260786365627	-0.00378143310546875	0.7904052734375
661	0.78857421875	251.285186365566	-0.00374359130859375	0.787353515625
662	0.7861328125	251.309586365504	-0.0038323974609375	0.7855224609375
663	0.78369140625	251.333986365443	-0.0037628173828125	0.782470703125
664	0.78125	251.358386365381	-0.003853759765625	0.78033447265625
665	0.77880859375	251.382786365319	-0.00380767822265625	0.777587890625
666	0.7763671875	251.407186365258	-0.0038525390625	0.7757568359375
667	0.77392578125	251.431586365196	-0.00386932373046875	0.77362060546875
668	0.771484375	251.455986365135	-0.0038458251953125	0.77056884765625
669	0.76904296875	251.480386365073	-0.0039215087890625	0.76904296875
670	0.7666015625	251.504786365011	-0.00385345458984375	0.7659912109375
671	0.76416015625	251.52918636495	-0.0039483642578125	0.7635498046875
672	0.76171875	251.553586364888	-0.00388671875	0.76141357421875
673	0.75927734375	251.577986364827	-0.00394744873046875	0.75836181640625
674	0.7568359375	251.602386364765	-0.00394256591796875	0.7562255859375
675	0.75439453125	251.626786364703	-0.00393585205078125	0.7537841796875
676	0.751953125	251.651186364642	-0.00399627685546875	0.7513427734375
677	0.74951171875	251.67558636458	-0.00393524169921875	0.748291015625
678	0.7470703125	251.699986364519	-0.00402679443359375	0.74749755859375
679	0.74462890625	251.724386364457	-0.003958740234375	0.7449951171875
680	0.7421875	251.748786364395	-0.00402801513671875	0.742584228515625
681	0.73974609375	251.773186364334	-0.00400634765625	0.740203857421875
682	0.7373046875	251.797586364272	-0.0040130615234375	0.7376708984375
683	0.73486328125	251.821986364211	-0.00405792236328125	0.73541259765625
684	0.732421875	251.846386364149	-0.00400604248046875	0.732818603515625
685	0.72998046875	251.870786364087	-0.0040924072265625	0.730560302734375
686	0.7275390625	251.895186364026	-0.00402099609375	0.72796630859375
687	0.72509765625	251.919586363964	-0.004097900390625	0.725555419921875
688	0.72265625	251.943986363903	-0.00406005859375	0.723175048828125
689	0.72021484375	251.968386363841	-0.004085693359375	0.720611572265625
690	0.7177734375	251.992786363779	-0.004110107421875	0.718292236328125
691	0.71533203125	252.017186363718	-0.00407135009765625	0.7158203125
692	0.712890625	252.041586363656	-0.00414794921875	0.71343994140625
693	0.71044921875	252.065986363595	-0.0040771484375	0.710906982421875
694	0.7080078125	252.090386363533	-0.00415985107421875	0.70855712890625
695	0.70556640625	252.114786363471	-0.0041082763671875	0.70599365234375
696	0.703125	252.13918636341	-0.00414947509765625	0.70355224609375
697	0.70068359375	252.163586363348	-0.0041552734375	0.70123291015625
698	0.6982421875	252.187986363287	-0.0041326904296875	0.6986083984375
699	0.69580078125	252.212386363225	-0.004195556640625	0.696380615234375
700	0.693359375	252.236786363163	-0.00413055419921875	0.693817138671875
701	0.69091796875	252.261186363102	-0.00421295166015625	0.69146728515625
702	0.6884765625	252.28558636304	-0.004151611328125	0.688995361328125
703	0.68603515625	252.309986362979	-0.00420684814453125	0.6865234375
704	0.68359375	252.334386362917	-0.0041943359375	0.684173583984375
705	0.68115234375	252.358786362855	-0.00418853759765625	0.681640625
706	0.6787109375	252.383186362794	-0.00423675537109375	0.6793212890625
707	0.67626953125	252.407586362732	-0.0041790771484375	0.676788330078125
708	0.673828125	252.431986362671	-0.004259033203125	0.674468994140625
709	0.67138671875	252.456386362609	-0.00419281005859375	0.67193603515625
710	0.6689453125	252.480786362547	-0.00425628662109375	0.66949462890625
711	0.66650390625	252.505186362486	-0.0042279052734375	0.6671142578125
712	0.6640625	252.529586362424	-0.00423797607421875	0.664581298828125
713	0.66162109375	252.553986362362	-0.00426910400390625	0.662200927734375
714	0.6591796875	252.578386362301	-0.0042230224609375	0.659759521484375
715	0.65673828125	252.602786362239	-0.004296875	0.657379150390625
716	0.654296875	252.627186362178	-0.00422760009765625	0.654876708984375
717	0.65185546875	252.651586362116	-0.00429901123046875	0.652496337890625
718	0.6494140625	252.675986362054	-0.0042559814453125	0.6500244140625
719	0.64697265625	252.700386361993	-0.00428131103515625	0.647491455078125
720	0.64453125	252.724786361931	-0.00429534912109375	0.645172119140625
721	0.64208984375	252.74918636187	-0.00426239013671875	0.6427001953125
722	0.6396484375	252.773586361808	-0.00432647705078125	0.640289306640625
723	0.63720703125	252.797986361746	-0.00425994873046875	0.6378173828125
724	0.634765625	252.822386361685	-0.00433380126953125	0.635406494140625
725	0.63232421875	252.846786361623	-0.00428070068359375	0.632904052734375
726	0.6298828125	252.871186361562	-0.00432037353515625	0.630462646484375
727	0.62744140625	252.8955863615	-0.004317626953125	0.62811279296875
728	0.625	252.919986361438	-0.00430023193359375	0.62554931640625
729	0.62255859375	252.944386361377	-0.004351806640625	0.62322998046875
730	0.6201171875	252.968786361315	-0.0042913818359375	0.620697021484375
731	0.61767578125	252.993186361254	-0.00436492919921875	0.61834716796875
732	0.615234375	253.017586361192	-0.00430450439453125	0.615814208984375
733	0.61279296875	253.04198636113	-0.00435577392578125	0.6134033203125
734	0.6103515625	253.066386361069	-0.00433746337890625	0.611053466796875
735	0.60791015625	253.090786361007	-0.00433502197265625	0.608489990234375
736	0.60546875	253.115186360946	-0.00437286376953125	0.60614013671875
737	0.60302734375	253.139586360884	-0.0043218994140625	0.603607177734375
738	0.6005859375	253.163986360822	-0.00439208984375	0.60125732421875
739	0.59814453125	253.188386360761	-0.00432861328125	0.5987548828125
740	0.595703125	253.212786360699	-0.0043878173828125	0.5963134765625
741	0.59326171875	253.237186360638	-0.00435516357421875	0.593963623046875
742	0.5908203125	253.261586360576	-0.00436737060546875	0.591461181640625
743	0.58837890625	253.285986360514	-0.004390869140625	0.589019775390625
744	0.5859375	253.310386360453	-0.0043499755859375	0.5865478515625
745	0.58349609375	253.334786360391	-0.0044134521484375	0.58416748046875
746	0.5810546875	253.35918636033	-0.0043499755859375	0.5816650390625
747	0.57861328125	253.383586360268	-0.00441619873046875	0.579315185546875
748	0.576171875	253.407986360206	-0.0043719482421875	0.576812744140625
749	0.57373046875	253.432386360145	-0.00439697265625	0.574432373046875
750	0.5712890625	253.456786360083	-0.00439971923828125	0.57196044921875
751	0.56884765625	253.481186360022	-0.0043701171875	0.56951904296875
752	0.56640625	253.50558635996	-0.00442352294921875	0.567108154296875
753	0.56396484375	253.529986359898	-0.0043609619140625	0.564605712890625
754	0.5615234375	253.554386359837	-0.00443023681640625	0.562255859375
755	0.55908203125	253.578786359775	-0.00437957763671875	0.559814453125
756	0.556640625	253.603186359714	-0.00441925048828125	0.55731201171875
757	0.55419921875	253.627586359652	-0.00441375732421875	0.554931640625
758	0.5517578125	253.65198635959	-0.0044012451171875	0.55242919921875
759	0.54931640625	253.676386359529	-0.00444549560546875	0.550048828125
760	0.546875	253.700786359467	-0.00439056396484375	0.54754638671875
761	0.54443359375	253.725186359405	-0.00445892333984375	0.545135498046875
762	0.5419921875	253.749586359344	-0.00440185546875	0.542724609375
763	0.53955078125	253.773986359282	-0.0044512939453125	0.540283203125
764	0.537109375	253.798386359221	-0.00443084716796875	0.537811279296875
765	0.53466796875	253.822786359159	-0.00443145751953125	0.53533935546875
766	0.5322265625	253.847186359097	-0.004462890625	0.532989501953125
767	0.52978515625	253.871586359036	-0.00441650390625	0.530487060546875
768	0.52734375	253.895986358974	-0.0044805908203125	0.528076171875
769	0.52490234375	253.920386358913	-0.00441986083984375	0.525604248046875
770	0.5224609375	253.944786358851	-0.00447601318359375	0.523223876953125
771	0.52001953125	253.969186358789	-0.0044439697265625	0.520721435546875
772	0.517578125	253.993586358728	-0.00445770263671875	0.51824951171875
773	0.51513671875	254.017986358666	-0.004476318359375	0.515899658203125
774	0.5126953125	254.042386358605	-0.00443939208984375	0.51336669921875
775	0.51025390625	254.066786358543	-0.00449798583984375	0.511016845703125
776	0.5078125	254.091186358481	-0.0044378662109375	0.508544921875
777	0.50537109375	254.11558635842	-0.00449859619140625	0.506072998046875
778	0.5029296875	254.139986358358	-0.00445648193359375	0.503631591796875
779	0.50048828125	254.164386358297	-0.00448211669921875	0.501251220703125
780	0.498046875	254.188786358235	-0.00448699951171875	0.49884033203125
781	0.49560546875	254.213186358173	-0.00446136474609375	0.49627685546875
782	0.4931640625	254.237586358112	-0.00451141357421875	0.493988037109375
783	0.49072265625	254.26198635805	-0.00445343017578125	0.49139404296875
784	0.48828125	254.286386357989	-0.0045159912109375	0.488983154296875
785	0.48583984375	254.310786357927	-0.0044671630859375	0.486572265625
786	0.4833984375	254.335186357865	-0.0045025634765625	0.484161376953125
787	0.48095703125	254.359586357804	-0.00449462890625	0.481719970703125
788	0.478515625	254.383986357742	-0.004481201171875	0.479217529296875
789	0.47607421875	254.408386357681	-0.00452239990234375	0.47686767578125
790	0.4736328125	254.432786357619	-0.00447052001953125	0.474365234375
791	0.47119140625	254.457186357557	-0.00453216552734375	0.471923828125
792	0.46875	254.481586357496	-0.00447723388671875	0.469451904296875
793	0.46630859375	254.505986357434	-0.00452178955078125	0.467010498046875
794	0.4638671875	254.530386357373	-0.0045025634765625	0.4647216796875
795	0.46142578125	254.554786357311	-0.004500732421875	0.462066650390625
796	0.458984375	254.579186357249	-0.0045306396484375	0.459747314453125
797	0.45654296875	254.603586357188	-0.00448486328125	0.457275390625
798	0.4541015625	254.627986357126	-0.00454498291015625	0.454833984375
799	0.45166015625	254.652386357065	-0.0044873046875	0.452423095703125
800	0.44921875	254.676786357003	-0.00453887939453125	0.449981689453125
801	0.44677734375	254.701186356941	-0.00450897216796875	0.44757080078125
802	0.4443359375	254.72558635688	-0.0045184326171875	0.445068359375
803	0.44189453125	254.749986356818	-0.0045379638671875	0.44268798828125
804	0.439453125	254.774386356757	-0.0045001220703125	0.440155029296875
805	0.43701171875	254.798786356695	-0.00455535888671875	0.43780517578125
806	0.4345703125	254.823186356633	-0.0044970703125	0.435333251953125
807	0.43212890625	254.847586356572	-0.00455291748046875	0.43292236328125
808	0.4296875	254.87198635651	-0.0045147705078125	0.4305419921875
809	0.42724609375	254.896386356448	-0.00453521728515625	0.428070068359375
810	0.4248046875	254.920786356387	-0.00454315185546875	0.425628662109375
811	0.42236328125	254.945186356325	-0.00451507568359375	0.423065185546875
812	0.419921875	254.969586356264	-0.00456451416015625	0.420745849609375
813	0.41748046875	254.993986356202	-0.00450836181640625	0.41827392578125
814	0.4150390625	255.01838635614	-0.00456695556640625	0.415863037109375
815	0.41259765625	255.042786356079	-0.0045208740234375	0.41339111328125
816	0.41015625	255.067186356017	-0.00455078125	0.410919189453125
817	0.40771484375	255.091586355956	-0.004547119140625	0.408538818359375
818	0.4052734375	255.115986355894	-0.00452972412109375	0.406005859375
819	0.40283203125	255.140386355832	-0.00457122802734375	0.4036865234375
820	0.400390625	255.164786355771	-0.00451873779296875	0.401123046875
821	0.39794921875	255.189186355709	-0.0045782470703125	0.398681640625
822	0.3955078125	255.213586355648	-0.00452728271484375	0.3963623046875
823	0.39306640625	255.237986355586	-0.0045660400390625	0.39385986328125
824	0.390625	255.262386355524	-0.004552001953125	0.391448974609375
825	0.38818359375	255.286786355463	-0.00454498291015625	0.388916015625
826	0.3857421875	255.311186355401	-0.0045782470703125	0.3865966796875
827	0.38330078125	255.33558635534	-0.00453033447265625	0.384063720703125
828	0.380859375	255.359986355278	-0.004588623046875	0.3817138671875
829	0.37841796875	255.384386355216	-0.00453460693359375	0.379241943359375
830	0.3759765625	255.408786355155	-0.00458038330078125	0.376800537109375
831	0.37353515625	255.433186355093	-0.0045562744140625	0.37432861328125
832	0.37109375	255.457586355032	-0.00456024169921875	0.371826171875
833	0.36865234375	255.48198635497	-0.0045831298828125	0.3695068359375
834	0.3662109375	255.506386354908	-0.004542236328125	0.36700439453125
835	0.36376953125	255.530786354847	-0.00459747314453125	0.364593505859375
836	0.361328125	255.555186354785	-0.004542236328125	0.362091064453125
837	0.35888671875	255.579586354724	-0.00459320068359375	0.35968017578125
838	0.3564453125	255.603986354662	-0.004560546875	0.357269287109375
839	0.35400390625	255.6283863546	-0.004573974609375	0.354766845703125
840	0.3515625	255.652786354539	-0.00458648681640625	0.352386474609375
841	0.34912109375	255.677186354477	-0.00455474853515625	0.349945068359375
842	0.3466796875	255.701586354416	-0.00460479736328125	0.3475341796875
843	0.34423828125	255.725986354354	-0.00454925537109375	0.345062255859375
844	0.341796875	255.750386354292	-0.0046038818359375	0.342681884765625
845	0.33935546875	255.774786354231	-0.00456390380859375	0.3402099609375
846	0.3369140625	255.799186354169	-0.00458740234375	0.337677001953125
847	0.33447265625	255.823586354108	-0.0045892333984375	0.3353271484375
848	0.33203125	255.847986354046	-0.0045660400390625	0.332855224609375
849	0.32958984375	255.872386353984	-0.00461090087890625	0.330474853515625
850	0.3271484375	255.896786353923	-0.0045574951171875	0.327911376953125
851	0.32470703125	255.921186353861	-0.00461395263671875	0.325592041015625
852	0.322265625	255.9455863538	-0.00456756591796875	0.32305908203125
853	0.31982421875	255.969986353738	-0.00459930419921875	0.3206787109375
854	0.3173828125	255.994386353676	-0.00459136962890625	0.31829833984375
855	0.31494140625	256.018786353615	-0.0045782470703125	0.3157958984375
856	0.3125	256.043186353553	-0.00461456298828125	0.313385009765625
857	0.31005859375	256.067586353491	-0.0045654296875	0.310821533203125
858	0.3076171875	256.09198635343	-0.0046221923828125	0.30841064453125
859	0.30517578125	256.116386353368	-0.004571533203125	0.30596923828125
860	0.302734375	256.140786353307	-0.0046112060546875	0.303558349609375
861	0.30029296875	256.165186353245	-0.004593505859375	0.30120849609375
862	0.2978515625	256.189586353183	-0.0045904541015625	0.298675537109375
863	0.29541015625	256.213986353122	-0.00461822509765625	0.29632568359375
864	0.29296875	256.23838635306	-0.0045745849609375	0.293792724609375
865	0.29052734375	256.262786352999	-0.00462921142578125	0.291412353515625
866	0.2880859375	256.287186352937	-0.00457550048828125	0.288909912109375
867	0.28564453125	256.311586352875	-0.00462127685546875	0.2864990234375
868	0.283203125	256.335986352814	-0.00459503173828125	0.284027099609375
869	0.28076171875	256.360386352752	-0.00460174560546875	0.281585693359375
870	0.2783203125	256.384786352691	-0.00462005615234375	0.279205322265625
871	0.27587890625	256.409186352629	-0.00458404541015625	0.27667236328125
872	0.2734375	256.433586352567	-0.0046356201171875	0.2742919921875
873	0.27099609375	256.457986352506	-0.0045819091796875	0.2718505859375
874	0.2685546875	256.482386352444	-0.00463226318359375	0.269439697265625
875	0.26611328125	256.506786352383	-0.0045977783203125	0.266937255859375
876	0.263671875	256.531186352321	-0.00461456298828125	0.2645263671875
877	0.26123046875	256.555586352259	-0.00462371826171875	0.262115478515625
878	0.2587890625	256.579986352198	-0.0045953369140625	0.2596435546875
879	0.25634765625	256.604386352136	-0.004642333984375	0.25726318359375
880	0.25390625	256.628786352075	-0.00458892822265625	0.25469970703125
881	0.25146484375	256.653186352013	-0.004642333984375	0.2523193359375
882	0.2490234375	256.677586351951	-0.0046014404296875	0.24993896484375
883	0.24658203125	256.70198635189	-0.0046270751953125	0.2474365234375
884	0.244140625	256.726386351828	-0.00462615966796875	0.2449951171875
885	0.24169921875	256.750786351767	-0.00460723876953125	0.24249267578125
886	0.2392578125	256.775186351705	-0.00464752197265625	0.240081787109375
887	0.23681640625	256.799586351643	-0.00459686279296875	0.2376708984375
888	0.234375	256.823986351582	-0.00465118408203125	0.235321044921875
889	0.23193359375	256.84838635152	-0.0046044921875	0.23272705078125
890	0.2294921875	256.872786351459	-0.004638671875	0.230316162109375
891	0.22705078125	256.897186351397	-0.00462738037109375	0.22796630859375
892	0.224609375	256.921586351335	-0.0046185302734375	0.2254638671875
893	0.22216796875	256.945986351274	-0.00465057373046875	0.223114013671875
894	0.2197265625	256.970386351212	-0.00460540771484375	0.220611572265625
895	0.21728515625	256.994786351151	-0.00465972900390625	0.218170166015625
896	0.21484375	257.019186351089	-0.00460968017578125	0.215667724609375
897	0.21240234375	257.043586351027	-0.00465057373046875	0.21319580078125
898	0.2099609375	257.067986350966	-0.00463043212890625	0.21087646484375
899	0.20751953125	257.092386350904	-0.00463104248046875	0.2083740234375
900	0.205078125	257.116786350843	-0.004654541015625	0.206024169921875
901	0.20263671875	257.141186350781	-0.004615478515625	0.2034912109375
902	0.2001953125	257.165586350719	-0.00466705322265625	0.201141357421875
903	0.19775390625	257.189986350658	-0.00461456298828125	0.198638916015625
904	0.1953125	257.214386350596	-0.00466094970703125	0.196136474609375
905	0.19287109375	257.238786350534	-0.0046319580078125	0.19378662109375
906	0.1904296875	257.263186350473	-0.00464263916015625	0.19122314453125
907	0.18798828125	257.287586350411	-0.0046563720703125	0.18890380859375
908	0.185546875	257.31198635035	-0.00462371826171875	0.186370849609375
909	0.18310546875	257.336386350288	-0.00467193603515625	0.184051513671875
910	0.1806640625	257.360786350226	-0.0046197509765625	0.1815185546875
911	0.17822265625	257.385186350165	-0.0046697998046875	0.17913818359375
912	0.17578125	257.409586350103	-0.00463348388671875	0.176666259765625
913	0.17333984375	257.433986350042	-0.00465362548828125	0.1741943359375
914	0.1708984375	257.45838634998	-0.0046575927734375	0.17181396484375
915	0.16845703125	257.482786349918	-0.0046343994140625	0.1693115234375
916	0.166015625	257.507186349857	-0.0046759033203125	0.166961669921875
917	0.16357421875	257.531586349795	-0.004625244140625	0.164459228515625
918	0.1611328125	257.555986349734	-0.004677734375	0.162017822265625
919	0.15869140625	257.580386349672	-0.004635009765625	0.159576416015625
920	0.15625	257.60478634961	-0.0046636962890625	0.15716552734375
921	0.15380859375	257.629186349549	-0.00465789794921875	0.154754638671875
922	0.1513671875	257.653586349487	-0.0046435546875	0.152252197265625
923	0.14892578125	257.677986349426	-0.0046783447265625	0.14990234375
924	0.146484375	257.702386349364	-0.00463165283203125	0.1473388671875
925	0.14404296875	257.726786349302	-0.00468475341796875	0.144989013671875
926	0.1416015625	257.751186349241	-0.004637451171875	0.14251708984375
927	0.13916015625	257.775586349179	-0.0046734619140625	0.14007568359375
928	0.13671875	257.799986349118	-0.0046575927734375	0.13763427734375
929	0.13427734375	257.824386349056	-0.00465362548828125	0.135223388671875
930	0.1318359375	257.848786348994	-0.00468048095703125	0.1328125
931	0.12939453125	257.873186348933	-0.00463836669921875	0.130279541015625
932	0.126953125	257.897586348871	-0.0046905517578125	0.1279296875
933	0.12451171875	257.92198634881	-0.00464019775390625	0.125396728515625
934	0.1220703125	257.946386348748	-0.00468292236328125	0.122955322265625
935	0.11962890625	257.970786348686	-0.00465789794921875	0.120513916015625
936	0.1171875	257.995186348625	-0.00466400146484375	0.11798095703125
937	0.11474609375	258.019586348563	-0.004681396484375	0.11578369140625
938	0.1123046875	258.043986348502	-0.00464691162109375	0.113250732421875
939	0.10986328125	258.06838634844	-0.0046954345703125	0.110870361328125
940	0.107421875	258.092786348378	-0.0046441650390625	0.10833740234375
941	0.10498046875	258.117186348317	-0.00469207763671875	0.105926513671875
942	0.1025390625	258.141586348255	-0.00465850830078125	0.103485107421875
943	0.10009765625	258.165986348194	-0.00467437744140625	0.10101318359375
944	0.09765625	258.190386348132	-0.004681396484375	0.098663330078125
945	0.09521484375	258.21478634807	-0.00465576171875	0.096099853515625
946	0.0927734375	258.239186348009	-0.004698486328125	0.09375
947	0.09033203125	258.263586347947	-0.0046484375	0.09124755859375
948	0.087890625	258.287986347886	-0.004698486328125	0.0888671875
949	0.08544921875	258.312386347824	-0.0046588134765625	0.086395263671875
950	0.0830078125	258.336786347762	-0.00468353271484375	0.08392333984375
951	0.08056640625	258.361186347701	-0.00468109130859375	0.081512451171875
952	0.078125	258.385586347639	-0.00466400146484375	0.0789794921875
953	0.07568359375	258.409986347578	-0.00470062255859375	0.076690673828125
954	0.0732421875	258.434386347516	-0.0046533203125	0.074127197265625
955	0.07080078125	258.458786347454	-0.0047052001953125	0.07177734375
956	0.068359375	258.483186347393	-0.0046600341796875	0.069305419921875
957	0.06591796875	258.507586347331	-0.00469268798828125	0.066864013671875
958	0.0634765625	258.531986347269	-0.00468017578125	0.064483642578125
959	0.06103515625	258.556386347208	-0.0046734619140625	0.06195068359375
960	0.05859375	258.580786347146	-0.0047021484375	0.0595703125
961	0.05615234375	258.605186347085	-0.0046600341796875	0.057098388671875
962	0.0537109375	258.629586347023	-0.00471038818359375	0.05474853515625
963	0.05126953125	258.653986346961	-0.004661865234375	0.052215576171875
964	0.048828125	258.6783863469	-0.0047021484375	0.0498046875
965	0.04638671875	258.702786346838	-0.00467926025390625	0.04661865234375
966	0.0439453125	258.727186346777	-0.00468414306640625	0.0441619873046875
967	0.04150390625	258.751586346715	-0.0047015380859375	0.0417327880859375
968	0.0390625	258.775986346653	-0.0046673583984375	0.039251708984375
969	0.03662109375	258.800386346592	-0.00471466064453125	0.0368682861328125
970	0.0341796875	258.82478634653	-0.00466461181640625	0.034381103515625
971	0.03173828125	258.849186346469	-0.004710693359375	0.031976318359375
972	0.029296875	258.873586346407	-0.0046783447265625	0.0295135498046875
973	0.02685546875	258.897986346345	-0.0046929931640625	0.027093505859375
974	0.0244140625	258.922386346284	-0.004700927734375	0.0246673583984375
975	0.02197265625	258.946786346222	-0.00467529296875	0.0221832275390625
976	0.01953125	258.971186346161	-0.00471771240234375	0.01982421875
977	0.01708984375	258.995586346099	-0.0046685791015625	0.017303466796875
978	0.0146484375	259.019986346037	-0.004718017578125	0.014898681640625
979	0.01220703125	259.044386345976	-0.00467926025390625	0.01243896484375
980	0.009765625	259.068786345914	-0.0047039794921875	0.00999755859375
981	0.00732421875	259.093186345853	-0.004700927734375	0.00758972167968749
982	0.0048828125	259.117586345791	-0.0046844482421875	0.00510253906249999
983	0.00244140625	259.141986345729	-0.00472015380859375	0.002716064453125
984	0	259.166386345668	-0.00467437744140625	0.0001983642578125
985	0.00244140625	259.190786345606	-0.00472320556640625	0.0027191162109375
986	0.0048828125	259.215186345545	-0.0046771240234375	0.00510253906249999
987	0.00732421875	259.239586345483	-0.004708251953125	0.0075653076171875
988	0.009765625	259.263986345421	-0.0046942138671875	0.0100128173828125
989	0.01220703125	259.28838634536	-0.004686279296875	0.0124053955078125
990	0.0146484375	259.312786345298	-0.00471221923828125	0.014910888671875
991	0.01708984375	259.337186345237	-0.0046697998046875	0.0172882080078125
992	0.01953125	259.361586345175	-0.00471832275390625	0.019793701171875
993	0.02197265625	259.385986345113	-0.0046685791015625	0.02218017578125
