Index	Potential applied (V)	Time (s)	WE(1).Current (A)	WE(1).Potential (V)
1	0.00244140625	6.70894398306154	-0.004759521484375	0.002685546875
2	0.0048828125	6.73334398299994	-0.00472412109375	0.00510559082031251
3	0.00732421875	6.75774398293834	-0.0047430419921875	0.00757446289062499
4	0.009765625	6.78214398287673	-0.00474212646484375	0.01002197265625
5	0.01220703125	6.80654398281513	-0.00472381591796875	0.0124176025390625
6	0.0146484375	6.83094398275352	-0.004757080078125	0.0149200439453125
7	0.01708984375	6.85534398269192	-0.0047119140625	0.01729736328125
8	0.01953125	6.87974398263032	-0.00475982666015625	0.0197784423828125
9	0.02197265625	6.90414398256871	-0.00471435546875	0.0221893310546875
10	0.0244140625	6.92854398250711	-0.00474884033203125	0.0246551513671875
11	0.02685546875	6.9529439824455	-0.00472869873046875	0.0270904541015625
12	0.029296875	6.9773439823839	-0.0047296142578125	0.0295196533203125
13	0.03173828125	7.0017439823223	-0.00474700927734375	0.0320465087890625
14	0.0341796875	7.02614398226069	-0.0047125244140625	0.0343658447265625
15	0.03662109375	7.05054398219909	-0.0047564697265625	0.036907958984375
16	0.0390625	7.07494398213748	-0.00470672607421875	0.0392486572265625
17	0.04150390625	7.09934398207588	-0.00475189208984375	0.0417572021484375
18	0.0439453125	7.12374398201428	-0.00471710205078125	0.044158935546875
19	0.04638671875	7.14814398195267	-0.0047369384765625	0.0466064453125
20	0.048828125	7.17254398189107	-0.00473663330078125	0.049835205078125
21	0.05126953125	7.19694398182946	-0.00471771240234375	0.052215576171875
22	0.0537109375	7.22134398176786	-0.00475250244140625	0.054656982421875
23	0.05615234375	7.24574398170625	-0.00470672607421875	0.057098388671875
24	0.05859375	7.27014398164465	-0.00475494384765625	0.05963134765625
25	0.06103515625	7.29454398158305	-0.00470916748046875	0.062042236328125
26	0.0634765625	7.31894398152144	-0.0047430419921875	0.064453125
27	0.06591796875	7.34334398145984	-0.0047247314453125	0.066925048828125
28	0.068359375	7.36774398139823	-0.00472442626953125	0.06927490234375
29	0.07080078125	7.39214398133663	-0.00474273681640625	0.071746826171875
30	0.0732421875	7.41654398127503	-0.00470733642578125	0.074188232421875
31	0.07568359375	7.44094398121342	-0.004752197265625	0.076690673828125
32	0.078125	7.46534398115182	-0.0047027587890625	0.07904052734375
33	0.08056640625	7.48974398109021	-0.0047467041015625	0.081512451171875
34	0.0830078125	7.51414398102861	-0.0047119140625	0.083984375
35	0.08544921875	7.53854398096701	-0.004730224609375	0.086395263671875
36	0.087890625	7.5629439809054	-0.00472991943359375	0.088836669921875
37	0.09033203125	7.5873439808438	-0.004710693359375	0.09124755859375
38	0.0927734375	7.61174398078219	-0.004744873046875	0.093780517578125
39	0.09521484375	7.63614398072059	-0.0046990966796875	0.096099853515625
40	0.09765625	7.66054398065899	-0.004747314453125	0.098602294921875
41	0.10009765625	7.68494398059738	-0.00470184326171875	0.10107421875
42	0.1025390625	7.70934398053578	-0.004736328125	0.103546142578125
43	0.10498046875	7.73374398047417	-0.004716796875	0.105926513671875
44	0.107421875	7.75814398041257	-0.00471649169921875	0.10833740234375
45	0.10986328125	7.78254398035097	-0.004735107421875	0.11083984375
46	0.1123046875	7.80694398028936	-0.00470001220703125	0.113189697265625
47	0.11474609375	7.83134398022776	-0.0047454833984375	0.11572265625
48	0.1171875	7.85574398016615	-0.0046954345703125	0.1180419921875
49	0.11962890625	7.88014398010455	-0.00474029541015625	0.12054443359375
50	0.1220703125	7.90454398004294	-0.00470550537109375	0.123016357421875
51	0.12451171875	7.92894397998134	-0.00472412109375	0.125457763671875
52	0.126953125	7.95334397991974	-0.00472381591796875	0.127899169921875
53	0.12939453125	7.97774397985813	-0.00470458984375	0.130279541015625
54	0.1318359375	8.00214397979653	-0.00473907470703125	0.132843017578125
55	0.13427734375	8.02654397973492	-0.0046929931640625	0.135162353515625
56	0.13671875	8.05094397967332	-0.0047418212890625	0.137664794921875
57	0.13916015625	8.07534397961172	-0.0046954345703125	0.140045166015625
58	0.1416015625	8.09974397955011	-0.004730224609375	0.14251708984375
59	0.14404296875	8.12414397948851	-0.00471099853515625	0.144989013671875
60	0.146484375	8.1485439794269	-0.00471099853515625	0.147369384765625
61	0.14892578125	8.1729439793653	-0.00472930908203125	0.14984130859375
62	0.1513671875	8.1973439793037	-0.004693603515625	0.152252197265625
63	0.15380859375	8.22174397924209	-0.0047393798828125	0.15478515625
64	0.15625	8.24614397918049	-0.004688720703125	0.157135009765625
65	0.15869140625	8.27054397911888	-0.0047344970703125	0.159637451171875
66	0.1611328125	8.29494397905728	-0.00469879150390625	0.162017822265625
67	0.16357421875	8.31934397899568	-0.00471771240234375	0.164520263671875
68	0.166015625	8.34374397893407	-0.00471771240234375	0.166961669921875
69	0.16845703125	8.36814397887247	-0.004698486328125	0.1693115234375
70	0.1708984375	8.39254397881086	-0.00473388671875	0.171844482421875
71	0.17333984375	8.41694397874926	-0.0046868896484375	0.1741943359375
72	0.17578125	8.44134397868766	-0.004736328125	0.176727294921875
73	0.17822265625	8.46574397862605	-0.00468994140625	0.17913818359375
74	0.1806640625	8.49014397856445	-0.00472503662109375	0.1815185546875
75	0.18310546875	8.51454397850284	-0.00470550537109375	0.18402099609375
76	0.185546875	8.53894397844124	-0.004705810546875	0.186431884765625
77	0.18798828125	8.56334397837963	-0.00472442626953125	0.18890380859375
78	0.1904296875	8.58774397831803	-0.00468902587890625	0.191253662109375
79	0.19287109375	8.61214397825643	-0.00473419189453125	0.193817138671875
80	0.1953125	8.63654397819482	-0.00468414306640625	0.1961669921875
81	0.19775390625	8.66094397813322	-0.00472991943359375	0.19866943359375
82	0.2001953125	8.68534397807161	-0.00469451904296875	0.20111083984375
83	0.20263671875	8.70974397801001	-0.004713134765625	0.203521728515625
84	0.205078125	8.73414397794841	-0.00471282958984375	0.205963134765625
85	0.20751953125	8.7585439778868	-0.0046929931640625	0.208343505859375
86	0.2099609375	8.7829439778252	-0.00472869873046875	0.21087646484375
87	0.21240234375	8.80734397776359	-0.00468170166015625	0.2132568359375
88	0.21484375	8.83174397770199	-0.00473114013671875	0.21575927734375
89	0.21728515625	8.85614397764039	-0.0046844482421875	0.21820068359375
90	0.2197265625	8.88054397757878	-0.00471923828125	0.22064208984375
91	0.22216796875	8.90494397751718	-0.0047003173828125	0.223052978515625
92	0.224609375	8.92934397745557	-0.00470001220703125	0.2254638671875
93	0.22705078125	8.95374397739397	-0.00471923828125	0.22796630859375
94	0.2294921875	8.97814397733237	-0.00468292236328125	0.2303466796875
95	0.23193359375	9.00254397727076	-0.00472930908203125	0.23284912109375
96	0.234375	9.02694397720916	-0.00467864990234375	0.2352294921875
97	0.23681640625	9.05134397714755	-0.00472381591796875	0.237701416015625
98	0.2392578125	9.07574397708595	-0.00468841552734375	0.240142822265625
99	0.24169921875	9.10014397702435	-0.00470672607421875	0.2425537109375
100	0.244140625	9.12454397696274	-0.00470703125	0.245025634765625
101	0.24658203125	9.14894397690114	-0.00468719482421875	0.24737548828125
102	0.2490234375	9.17334397683953	-0.00472259521484375	0.24993896484375
103	0.25146484375	9.19774397677793	-0.00467498779296875	0.252288818359375
104	0.25390625	9.22214397671632	-0.00472503662109375	0.2547607421875
105	0.25634765625	9.24654397665472	-0.0046783447265625	0.2572021484375
106	0.2587890625	9.27094397659312	-0.004713134765625	0.259674072265625
107	0.26123046875	9.29534397653151	-0.0046942138671875	0.262115478515625
108	0.263671875	9.31974397646991	-0.00469329833984375	0.26446533203125
109	0.26611328125	9.3441439764083	-0.00471282958984375	0.267059326171875
110	0.2685546875	9.3685439763467	-0.0046759033203125	0.2694091796875
111	0.27099609375	9.3929439762851	-0.0047222900390625	0.27191162109375
112	0.2734375	9.41734397622349	-0.0046710205078125	0.274261474609375
113	0.27587890625	9.44174397616189	-0.00471649169921875	0.2767333984375
114	0.2783203125	9.46614397610028	-0.00468109130859375	0.279205322265625
115	0.28076171875	9.49054397603868	-0.0046990966796875	0.281646728515625
116	0.283203125	9.51494397597708	-0.00469940185546875	0.28411865234375
117	0.28564453125	9.53934397591547	-0.00467864990234375	0.286468505859375
118	0.2880859375	9.56374397585387	-0.00471466064453125	0.289031982421875
119	0.29052734375	9.58814397579226	-0.004666748046875	0.29132080078125
120	0.29296875	9.61254397573066	-0.004716796875	0.29388427734375
121	0.29541015625	9.63694397566906	-0.0046697998046875	0.296295166015625
122	0.2978515625	9.66134397560745	-0.00470458984375	0.298675537109375
123	0.30029296875	9.68574397554585	-0.0046856689453125	0.301239013671875
124	0.302734375	9.71014397548424	-0.004683837890625	0.30352783203125
125	0.30517578125	9.73454397542264	-0.00470428466796875	0.3060302734375
126	0.3076171875	9.75894397536103	-0.00466705322265625	0.3084716796875
127	0.31005859375	9.78334397529943	-0.00471405029296875	0.310882568359375
128	0.3125	9.80774397523783	-0.0046624755859375	0.3133544921875
129	0.31494140625	9.83214397517622	-0.004708251953125	0.315826416015625
130	0.3173828125	9.85654397511462	-0.0046728515625	0.3182373046875
131	0.31982421875	9.88094397505301	-0.00469085693359375	0.32061767578125
132	0.322265625	9.90534397499141	-0.00469207763671875	0.323150634765625
133	0.32470703125	9.92974397492981	-0.00467132568359375	0.32550048828125
134	0.3271484375	9.9541439748682	-0.0047076416015625	0.328094482421875
135	0.32958984375	9.9785439748066	-0.00465911865234375	0.330352783203125
136	0.33203125	10.002943974745	-0.00470947265625	0.332855224609375
137	0.33447265625	10.0273439746834	-0.00466217041015625	0.3353271484375
138	0.3369140625	10.0517439746218	-0.0046966552734375	0.337799072265625
139	0.33935546875	10.0761439745602	-0.0046771240234375	0.34027099609375
140	0.341796875	10.1005439744986	-0.00467559814453125	0.342559814453125
141	0.34423828125	10.124943974437	-0.00469635009765625	0.345123291015625
142	0.3466796875	10.1493439743754	-0.0046588134765625	0.347503662109375
143	0.34912109375	10.1737439743138	-0.004705810546875	0.350006103515625
144	0.3515625	10.1981439742522	-0.0046533203125	0.352386474609375
145	0.35400390625	10.2225439741906	-0.00469940185546875	0.354888916015625
146	0.3564453125	10.246943974129	-0.0046636962890625	0.357330322265625
147	0.35888671875	10.2713439740673	-0.00468170166015625	0.35968017578125
148	0.361328125	10.2957439740057	-0.0046826171875	0.3621826171875
149	0.36376953125	10.3201439739441	-0.00466094970703125	0.36456298828125
150	0.3662109375	10.3445439738825	-0.0046978759765625	0.367095947265625
151	0.36865234375	10.3689439738209	-0.00464935302734375	0.369476318359375
152	0.37109375	10.3933439737593	-0.00469940185546875	0.371978759765625
153	0.37353515625	10.4177439736977	-0.0046514892578125	0.3743896484375
154	0.3759765625	10.4421439736361	-0.004686279296875	0.37689208984375
155	0.37841796875	10.4665439735745	-0.00466705322265625	0.379302978515625
156	0.380859375	10.4909439735129	-0.0046649169921875	0.381622314453125
157	0.38330078125	10.5153439734513	-0.00468536376953125	0.3841552734375
158	0.3857421875	10.5397439733897	-0.00464691162109375	0.38653564453125
159	0.38818359375	10.5641439733281	-0.0046942138671875	0.3890380859375
160	0.390625	10.5885439732665	-0.00464141845703125	0.39141845703125
161	0.39306640625	10.6129439732049	-0.00468780517578125	0.393890380859375
162	0.3955078125	10.6373439731433	-0.00465118408203125	0.396331787109375
163	0.39794921875	10.6617439730817	-0.004669189453125	0.398773193359375
164	0.400390625	10.6861439730201	-0.0046697998046875	0.4012451171875
165	0.40283203125	10.7105439729585	-0.0046478271484375	0.403656005859375
166	0.4052734375	10.7349439728969	-0.00468475341796875	0.406158447265625
167	0.40771484375	10.7593439728353	-0.00463531494140625	0.40850830078125
168	0.41015625	10.7837439727737	-0.004686279296875	0.410980224609375
169	0.41259765625	10.8081439727121	-0.00463836669921875	0.413421630859375
170	0.4150390625	10.8325439726505	-0.0046728515625	0.41583251953125
171	0.41748046875	10.8569439725889	-0.0046533203125	0.418304443359375
172	0.419921875	10.8813439725272	-0.00465118408203125	0.42071533203125
173	0.42236328125	10.9057439724656	-0.004671630859375	0.423248291015625
174	0.4248046875	10.930143972404	-0.00463287353515625	0.42559814453125
175	0.42724609375	10.9545439723424	-0.00468017578125	0.42816162109375
176	0.4296875	10.9789439722808	-0.00462615966796875	0.43048095703125
177	0.43212890625	11.0033439722192	-0.00467315673828125	0.43292236328125
178	0.4345703125	11.0277439721576	-0.00463623046875	0.43536376953125
179	0.43701171875	11.052143972096	-0.0046539306640625	0.43780517578125
180	0.439453125	11.0765439720344	-0.00465423583984375	0.440277099609375
181	0.44189453125	11.1009439719728	-0.0046319580078125	0.442657470703125
182	0.4443359375	11.1253439719112	-0.004669189453125	0.44512939453125
183	0.44677734375	11.1497439718496	-0.00461883544921875	0.44757080078125
184	0.44921875	11.174143971788	-0.00467010498046875	0.4500732421875
185	0.45166015625	11.1985439717264	-0.00462066650390625	0.45245361328125
186	0.4541015625	11.2229439716648	-0.00465545654296875	0.454864501953125
187	0.45654296875	11.2473439716032	-0.0046356201171875	0.457366943359375
188	0.458984375	11.2717439715416	-0.0046331787109375	0.459747314453125
189	0.46142578125	11.29614397148	-0.00465362548828125	0.462188720703125
190	0.4638671875	11.3205439714184	-0.00461334228515625	0.46466064453125
191	0.46630859375	11.3449439713568	-0.004661865234375	0.467071533203125
192	0.46875	11.3693439712952	-0.0046075439453125	0.469512939453125
193	0.47119140625	11.3937439712336	-0.00465484619140625	0.471954345703125
194	0.4736328125	11.418143971172	-0.00461700439453125	0.47442626953125
195	0.47607421875	11.4425439711104	-0.0046343994140625	0.47686767578125
196	0.478515625	11.4669439710487	-0.004635009765625	0.479339599609375
197	0.48095703125	11.4913439709871	-0.00461212158203125	0.481719970703125
198	0.4833984375	11.5157439709255	-0.004649658203125	0.4842529296875
199	0.48583984375	11.5401439708639	-0.0045977783203125	0.486541748046875
200	0.48828125	11.5645439708023	-0.00464996337890625	0.489044189453125
201	0.49072265625	11.5889439707407	-0.00459930419921875	0.49151611328125
202	0.4931640625	11.6133439706791	-0.004635009765625	0.493896484375
203	0.49560546875	11.6377439706175	-0.00461456298828125	0.496429443359375
204	0.498046875	11.6621439705559	-0.00461151123046875	0.498779296875
205	0.50048828125	11.6865439704943	-0.00463226318359375	0.50128173828125
206	0.5029296875	11.7109439704327	-0.00459136962890625	0.503662109375
207	0.50537109375	11.7353439703711	-0.00464019775390625	0.506195068359375
208	0.5078125	11.7597439703095	-0.0045843505859375	0.508514404296875
209	0.51025390625	11.7841439702479	-0.00463226318359375	0.511016845703125
210	0.5126953125	11.8085439701863	-0.004593505859375	0.513427734375
211	0.51513671875	11.8329439701247	-0.0046112060546875	0.515869140625
212	0.517578125	11.8573439700631	-0.0046112060546875	0.518310546875
213	0.52001953125	11.8817439700015	-0.00458709716796875	0.520721435546875
214	0.5224609375	11.9061439699399	-0.00462554931640625	0.52325439453125
215	0.52490234375	11.9305439698783	-0.0045721435546875	0.525665283203125
216	0.52734375	11.9549439698167	-0.00462493896484375	0.52813720703125
217	0.52978515625	11.9793439697551	-0.00457275390625	0.530548095703125
218	0.5322265625	12.0037439696935	-0.00460845947265625	0.532928466796875
219	0.53466796875	12.0281439696319	-0.00458740234375	0.53546142578125
220	0.537109375	12.0525439695703	-0.00458343505859375	0.53778076171875
221	0.53955078125	12.0769439695086	-0.00460479736328125	0.540283203125
222	0.5419921875	12.101343969447	-0.00456146240234375	0.542755126953125
223	0.54443359375	12.1257439693854	-0.00461181640625	0.545196533203125
224	0.546875	12.1501439693238	-0.0045538330078125	0.547607421875
225	0.54931640625	12.1745439692622	-0.00460205078125	0.550048828125
226	0.5517578125	12.1989439692006	-0.0045623779296875	0.55255126953125
227	0.55419921875	12.223343969139	-0.0045794677734375	0.55487060546875
228	0.556640625	12.2477439690774	-0.00458038330078125	0.557373046875
229	0.55908203125	12.2721439690158	-0.00455474853515625	0.559783935546875
230	0.5615234375	12.2965439689542	-0.0045947265625	0.56231689453125
231	0.56396484375	12.3209439688926	-0.00453887939453125	0.564605712890625
232	0.56640625	12.345343968831	-0.0045928955078125	0.567138671875
233	0.56884765625	12.3697439687694	-0.004539794921875	0.569580078125
234	0.5712890625	12.3941439687078	-0.0045758056640625	0.572021484375
235	0.57373046875	12.4185439686462	-0.00455474853515625	0.574432373046875
236	0.576171875	12.4429439685846	-0.00455047607421875	0.5767822265625
237	0.57861328125	12.467343968523	-0.00457305908203125	0.579345703125
238	0.5810546875	12.4917439684614	-0.0045281982421875	0.58172607421875
239	0.58349609375	12.5161439683998	-0.00457977294921875	0.584259033203125
240	0.5859375	12.5405439683382	-0.00451995849609375	0.586517333984375
241	0.58837890625	12.5649439682766	-0.00456939697265625	0.589111328125
242	0.5908203125	12.589343968215	-0.0045281982421875	0.591522216796875
243	0.59326171875	12.6137439681534	-0.00454559326171875	0.593963623046875
244	0.595703125	12.6381439680918	-0.00454620361328125	0.596435546875
245	0.59814453125	12.6625439680301	-0.0045184326171875	0.598846435546875
246	0.6005859375	12.6869439679685	-0.00455963134765625	0.60137939453125
247	0.60302734375	12.7113439679069	-0.00450225830078125	0.603668212890625
248	0.60546875	12.7357439678453	-0.00455780029296875	0.60614013671875
249	0.60791015625	12.7601439677837	-0.0045025634765625	0.608551025390625
250	0.6103515625	12.7845439677221	-0.00453887939453125	0.61102294921875
251	0.61279296875	12.8089439676605	-0.00451690673828125	0.613494873046875
252	0.615234375	12.8333439675989	-0.00451080322265625	0.61590576171875
253	0.61767578125	12.8577439675373	-0.00453369140625	0.61834716796875
254	0.6201171875	12.8821439674757	-0.00448638916015625	0.6207275390625
255	0.62255859375	12.9065439674141	-0.00453948974609375	0.62322998046875
256	0.625	12.9309439673525	-0.00447723388671875	0.6256103515625
257	0.62744140625	12.9553439672909	-0.00452728271484375	0.62811279296875
258	0.6298828125	12.9797439672293	-0.00448455810546875	0.630523681640625
259	0.63232421875	13.0041439671677	-0.004500732421875	0.632965087890625
260	0.634765625	13.0285439671061	-0.004501953125	0.63543701171875
261	0.63720703125	13.0529439670445	-0.0044720458984375	0.637786865234375
262	0.6396484375	13.0773439669829	-0.00451446533203125	0.640380859375
263	0.64208984375	13.1017439669213	-0.00445220947265625	0.64263916015625
264	0.64453125	13.1261439668597	-0.00450958251953125	0.64520263671875
265	0.64697265625	13.1505439667981	-0.00445159912109375	0.647613525390625
266	0.6494140625	13.1749439667365	-0.00448822021484375	0.649993896484375
267	0.65185546875	13.1993439666749	-0.00446502685546875	0.652496337890625
268	0.654296875	13.2237439666133	-0.004456787109375	0.654876708984375
269	0.65673828125	13.2481439665517	-0.00448150634765625	0.65740966796875
270	0.6591796875	13.27254396649	-0.0044305419921875	0.659759521484375
271	0.66162109375	13.2969439664284	-0.00448577880859375	0.66229248046875
272	0.6640625	13.3213439663668	-0.00441925048828125	0.664642333984375
273	0.66650390625	13.3457439663052	-0.004471435546875	0.66717529296875
274	0.6689453125	13.3701439662436	-0.00442626953125	0.669525146484375
275	0.67138671875	13.394543966182	-0.00444183349609375	0.6719970703125
276	0.673828125	13.4189439661204	-0.00444244384765625	0.674468994140625
277	0.67626953125	13.4433439660588	-0.00440887451171875	0.676849365234375
278	0.6787109375	13.4677439659972	-0.004453125	0.679351806640625
279	0.68115234375	13.4921439659356	-0.00438751220703125	0.681732177734375
280	0.68359375	13.516543965874	-0.0044464111328125	0.6842041015625
281	0.68603515625	13.5409439658124	-0.00438446044921875	0.686614990234375
282	0.6884765625	13.5653439657508	-0.00442138671875	0.6890869140625
283	0.69091796875	13.5897439656892	-0.00439727783203125	0.6915283203125
284	0.693359375	13.6141439656276	-0.00438690185546875	0.69384765625
285	0.69580078125	13.638543965566	-0.00441192626953125	0.696380615234375
286	0.6982421875	13.6629439655044	-0.00435699462890625	0.69873046875
287	0.70068359375	13.6873439654428	-0.0044140625	0.70123291015625
288	0.703125	13.7117439653812	-0.00434295654296875	0.703643798828125
289	0.70556640625	13.7361439653196	-0.0043963623046875	0.70611572265625
290	0.7080078125	13.760543965258	-0.00434814453125	0.708587646484375
291	0.71044921875	13.7849439651964	-0.0043621826171875	0.710968017578125
292	0.712890625	13.8093439651348	-0.00436248779296875	0.71343994140625
293	0.71533203125	13.8337439650732	-0.0043255615234375	0.715850830078125
294	0.7177734375	13.8581439650115	-0.00437164306640625	0.71832275390625
295	0.72021484375	13.8825439649499	-0.00430023193359375	0.720703125
296	0.72265625	13.9069439648883	-0.00436187744140625	0.72314453125
297	0.72509765625	13.9313439648267	-0.0042950439453125	0.7255859375
298	0.7275390625	13.9557439647651	-0.00433258056640625	0.72802734375
299	0.72998046875	13.9801439647035	-0.0043060302734375	0.730499267578125
300	0.732421875	14.0045439646419	-0.00429229736328125	0.732879638671875
301	0.73486328125	14.0289439645803	-0.00431793212890625	0.73541259765625
302	0.7373046875	14.0533439645187	-0.0042572021484375	0.73779296875
303	0.73974609375	14.0777439644571	-0.00431610107421875	0.74029541015625
304	0.7421875	14.1021439643955	-0.00423858642578125	0.74261474609375
305	0.74462890625	14.1265439643339	-0.00429290771484375	0.745147705078125
306	0.7470703125	14.1509439642723	-0.00424041748046875	0.74755859375
307	0.74951171875	14.1753439642107	-0.00425506591796875	0.74859619140625
308	0.751953125	14.1997439641491	-0.0042510986328125	0.7513427734375
309	0.75439453125	14.2241439640875	-0.004210205078125	0.7537841796875
310	0.7568359375	14.2485439640259	-0.00425567626953125	0.7562255859375
311	0.75927734375	14.2729439639643	-0.00417816162109375	0.7586669921875
312	0.76171875	14.2973439639027	-0.0042413330078125	0.760498046875
313	0.76416015625	14.3217439638411	-0.0041656494140625	0.76324462890625
314	0.7666015625	14.3461439637795	-0.00420440673828125	0.765380859375
315	0.76904296875	14.3705439637179	-0.004171142578125	0.76812744140625
316	0.771484375	14.3949439636563	-0.00415618896484375	0.7708740234375
317	0.77392578125	14.4193439635947	-0.00417877197265625	0.77362060546875
318	0.7763671875	14.4437439635331	-0.00411102294921875	0.77545166015625
319	0.77880859375	14.4681439634714	-0.00417022705078125	0.77789306640625
320	0.78125	14.4925439634098	-0.0040838623046875	0.7806396484375
321	0.78369140625	14.5169439633482	-0.004139404296875	0.7830810546875
322	0.7861328125	14.5413439632866	-0.00407745361328125	0.78521728515625
323	0.78857421875	14.565743963225	-0.00408905029296875	0.787353515625
324	0.791015625	14.5901439631634	-0.00408172607421875	0.7904052734375
325	0.79345703125	14.6145439631018	-0.00403564453125	0.79254150390625
326	0.7958984375	14.6389439630402	-0.00407928466796875	0.794677734375
327	0.79833984375	14.6633439629786	-0.00399200439453125	0.797119140625
328	0.80078125	14.687743962917	-0.0040545654296875	0.80047607421875
329	0.80322265625	14.7121439628554	-0.00397064208984375	0.802001953125
330	0.8056640625	14.7365439627938	-0.0040069580078125	0.804443359375
331	0.80810546875	14.7609439627322	-0.00396697998046875	0.80718994140625
332	0.810546875	14.7853439626706	-0.00394561767578125	0.809326171875
333	0.81298828125	14.809743962609	-0.0039630126953125	0.811767578125
334	0.8154296875	14.8341439625474	-0.00388763427734375	0.81512451171875
335	0.81787109375	14.8585439624858	-0.00394378662109375	0.81756591796875
336	0.8203125	14.8829439624242	-0.00384735107421875	0.8197021484375
337	0.82275390625	14.9073439623626	-0.003897705078125	0.821533203125
338	0.8251953125	14.931743962301	-0.00382781982421875	0.82489013671875
339	0.82763671875	14.9561439622394	-0.00383331298828125	0.826416015625
340	0.830078125	14.9805439621778	-0.00381805419921875	0.828857421875
341	0.83251953125	15.0049439621162	-0.0037615966796875	0.8319091796875
342	0.8349609375	15.0293439620546	-0.0037982177734375	0.83404541015625
343	0.83740234375	15.053743961993	-0.00370208740234375	0.8367919921875
344	0.83984375	15.0781439619313	-0.00375640869140625	0.83892822265625
345	0.84228515625	15.1025439618697	-0.0036627197265625	0.84136962890625
346	0.8447265625	15.1269439618081	-0.00368804931640625	0.8441162109375
347	0.84716796875	15.1513439617465	-0.00363922119140625	0.8465576171875
348	0.849609375	15.1757439616849	-0.00360931396484375	0.8489990234375
349	0.85205078125	15.2001439616233	-0.00361663818359375	0.850830078125
350	0.8544921875	15.2245439615617	-0.00353240966796875	0.85357666015625
351	0.85693359375	15.2489439615001	-0.0035748291015625	0.85662841796875
352	0.859375	15.2733439614385	-0.00347198486328125	0.85845947265625
353	0.86181640625	15.2977439613769	-0.00351043701171875	0.860595703125
354	0.8642578125	15.3221439613153	-0.00343231201171875	0.863037109375
355	0.86669921875	15.3465439612537	-0.00342498779296875	0.86578369140625
356	0.869140625	15.3709439611921	-0.00339935302734375	0.867919921875
357	0.87158203125	15.3953439611305	-0.0033367919921875	0.870361328125
358	0.8740234375	15.4197439610689	-0.0033587646484375	0.8734130859375
359	0.87646484375	15.4441439610073	-0.00325775146484375	0.8746337890625
360	0.87890625	15.4685439609457	-0.00329376220703125	0.87799072265625
361	0.88134765625	15.4929439608841	-0.0031976318359375	0.88104248046875
362	0.8837890625	15.5173439608225	-0.00320953369140625	0.8831787109375
363	0.88623046875	15.5417439607609	-0.00315185546875	0.885009765625
364	0.888671875	15.5661439606993	-0.0031109619140625	0.88775634765625
365	0.89111328125	15.5905439606377	-0.003104248046875	0.89019775390625
366	0.8935546875	15.6149439605761	-0.00301849365234375	0.892333984375
367	0.89599609375	15.6393439605145	-0.0030426025390625	0.8953857421875
368	0.8984375	15.6637439604528	-0.0029388427734375	0.8978271484375
369	0.90087890625	15.6881439603912	-0.00295654296875	0.89996337890625
370	0.9033203125	15.7125439603296	-0.0028753662109375	0.902099609375
371	0.90576171875	15.736943960268	-0.0028570556640625	0.904541015625
372	0.908203125	15.7613439602064	-0.00282073974609375	0.90728759765625
373	0.91064453125	15.7857439601448	-0.0027508544921875	0.909423828125
374	0.9130859375	15.8101439600832	-0.00275390625	0.91217041015625
375	0.91552734375	15.8345439600216	-0.0026556396484375	0.91461181640625
376	0.91796875	15.85894395996	-0.00267181396484375	0.91705322265625
377	0.92041015625	15.8833439598984	-0.00257537841796875	0.91949462890625
378	0.9228515625	15.9077439598368	-0.00256805419921875	0.921630859375
379	0.92529296875	15.9321439597752	-0.0025042724609375	0.924072265625
380	0.927734375	15.9565439597136	-0.00245697021484375	0.9271240234375
381	0.93017578125	15.980943959652	-0.00243621826171875	0.9295654296875
382	0.9326171875	16.0053439595904	-0.0023468017578125	0.931396484375
383	0.93505859375	16.0297439595288	-0.00234954833984375	0.9344482421875
384	0.9375	16.0541439594672	-0.00224822998046875	0.9368896484375
385	0.93994140625	16.0785439594056	-0.00224822998046875	0.93902587890625
386	0.9423828125	16.102943959344	-0.00216461181640625	0.9417724609375
387	0.94482421875	16.1273439592824	-0.002130126953125	0.94329833984375
388	0.947265625	16.1517439592208	-0.00208343505859375	0.94635009765625
389	0.94970703125	16.1761439591592	-0.00201202392578125	0.9490966796875
390	0.9521484375	16.2005439590976	-0.0019989013671875	0.95184326171875
391	0.95458984375	16.224943959036	-0.00189910888671875	0.953369140625
392	0.95703125	16.2493439589744	-0.00189453125	0.9564208984375
393	0.95947265625	16.2737439589127	-0.00179962158203125	0.95855712890625
394	0.9619140625	16.2981439588511	-0.00177886962890625	0.9613037109375
395	0.96435546875	16.3225439587895	-0.001710205078125	0.96405029296875
396	0.966796875	16.3469439587279	-0.00165252685546875	0.96527099609375
397	0.96923828125	16.3713439586663	-0.00161712646484375	0.96832275390625
398	0.9716796875	16.3957439586047	-0.001529541015625	0.97076416015625
399	0.97412109375	16.4201439585431	-0.00151702880859375	0.97320556640625
400	0.9765625	16.4445439584815	-0.001416015625	0.975341796875
401	0.97900390625	16.4689439584199	-0.00139678955078125	0.97808837890625
402	0.9814453125	16.4933439583583	-0.00131195068359375	0.98052978515625
403	0.98388671875	16.5177439582967	-0.00126953125	0.982666015625
404	0.986328125	16.5421439582351	-0.00121490478515625	0.9857177734375
405	0.98876953125	16.5665439581735	-0.00113677978515625	0.98785400390625
406	0.9912109375	16.5909439581119	-0.001107177734375	0.99029541015625
407	0.99365234375	16.6153439580503	-0.0010107421875	0.992431640625
408	0.99609375	16.6397439579887	-0.00099151611328125	0.9954833984375
409	0.99853515625	16.6641439579271	-0.00089569091796875	0.9979248046875
410	1.0009765625	16.6885439578655	-0.0008587646484375	0.999755859375
411	1.00341796875	16.7129439578039	-0.0007855224609375	1.00189208984375
412	1.005859375	16.7373439577423	-0.0007232666015625	1.00555419921875
413	1.00830078125	16.7617439576807	-0.0006787109375	1.007080078125
414	1.0107421875	16.7861439576191	-0.00058685302734375	1.0101318359375
415	1.01318359375	16.8105439575575	-0.0005572509765625	1.0125732421875
416	1.015625	16.8349439574959	-0.000458892822265625	1.0150146484375
417	1.01806640625	16.8593439574342	-0.000427703857421875	1.016845703125
418	1.0205078125	16.8837439573726	-0.000341400146484375	1.019287109375
419	1.02294921875	16.908143957311	-0.00028570556640625	1.02203369140625
420	1.025390625	16.9325439572494	-0.00022259521484375	1.0247802734375
421	1.02783203125	16.9569439571878	-0.000143707275390625	1.02691650390625
422	1.0302734375	16.9813439571262	-0.000104248046875	1.02935791015625
423	1.03271484375	17.0057439570646	-5.7708740234375E-06	1.0321044921875
424	1.03515625	17.030143957003	3.06396484375E-05	1.03424072265625
425	1.03759765625	17.0545439569414	0.000125030517578125	1.03668212890625
426	1.0400390625	17.0789439568798	0.0001707763671875	1.0394287109375
427	1.04248046875	17.1033439568182	0.00024713134765625	1.04156494140625
428	1.044921875	17.1277439567566	0.000319488525390625	1.04400634765625
429	1.04736328125	17.152143956695	0.0003748779296875	1.04644775390625
430	1.0498046875	17.1765439566334	0.000465087890625	1.048583984375
431	1.05224609375	17.2009439565718	0.0005047607421875	1.05133056640625
432	1.0546875	17.2253439565102	0.00060516357421875	1.053466796875
433	1.05712890625	17.2497439564486	0.000650634765625	1.05621337890625
434	1.0595703125	17.274143956387	0.00073974609375	1.0589599609375
435	1.06201171875	17.2985439563254	0.00079925537109375	1.06109619140625
436	1.064453125	17.3229439562638	0.0008673095703125	1.06353759765625
437	1.06689453125	17.3473439562022	0.0009521484375	1.065673828125
438	1.0693359375	17.3717439561406	0.00100433349609375	1.068115234375
439	1.07177734375	17.396143956079	0.00110076904296875	1.07086181640625
440	1.07421875	17.4205439560174	0.00114471435546875	1.07330322265625
441	1.07666015625	17.4449439559558	0.00124176025390625	1.0760498046875
442	1.0791015625	17.4693439558941	0.00129913330078125	1.07818603515625
443	1.08154296875	17.4937439558325	0.00138092041015625	1.080322265625
444	1.083984375	17.5181439557709	0.001453857421875	1.08306884765625
445	1.08642578125	17.5425439557093	0.00151519775390625	1.08551025390625
446	1.0888671875	17.5669439556477	0.00161041259765625	1.087646484375
447	1.09130859375	17.5913439555861	0.00166229248046875	1.08978271484375
448	1.09375	17.6157439555245	0.00176055908203125	1.092529296875
449	1.09619140625	17.6401439554629	0.00181182861328125	1.09466552734375
450	1.0986328125	17.6645439554013	0.001903076171875	1.09771728515625
451	1.10107421875	17.6889439553397	0.00197235107421875	1.099853515625
452	1.103515625	17.7133439552781	0.002047119140625	1.10260009765625
453	1.10595703125	17.7377439552165	0.00213134765625	1.104736328125
454	1.1083984375	17.7621439551549	0.00218902587890625	1.10748291015625
455	1.11083984375	17.7865439550933	0.002288818359375	1.10931396484375
456	1.11328125	17.8109439550317	0.00234466552734375	1.11236572265625
457	1.11572265625	17.8353439549701	0.00244110107421875	1.114501953125
458	1.1181640625	17.8597439549085	0.0025018310546875	1.11724853515625
459	1.12060546875	17.8841439548469	0.00258636474609375	1.11968994140625
460	1.123046875	17.9085439547853	0.0026666259765625	1.1224365234375
461	1.12548828125	17.9329439547237	0.0027362060546875	1.124267578125
462	1.1279296875	17.9573439546621	0.00282867431640625	1.1273193359375
463	1.13037109375	17.9817439546005	0.0028857421875	1.12945556640625
464	1.1328125	18.0061439545389	0.00298614501953125	1.131591796875
465	1.13525390625	18.0305439544773	0.00304779052734375	1.134033203125
466	1.1376953125	18.0549439544156	0.00313995361328125	1.1370849609375
467	1.14013671875	18.079343954354	0.00320953369140625	1.13922119140625
468	1.142578125	18.1037439542924	0.00328582763671875	1.141357421875
469	1.14501953125	18.1281439542308	0.00337432861328125	1.1431884765625
470	1.1474609375	18.1525439541692	0.0034393310546875	1.146240234375
471	1.14990234375	18.1769439541076	0.0035333251953125	1.1492919921875
472	1.15234375	18.201343954046	0.003590087890625	1.15142822265625
473	1.15478515625	18.2257439539844	0.00368255615234375	1.153564453125
474	1.1572265625	18.2501439539228	0.00374755859375	1.15631103515625
475	1.15966796875	18.2745439538612	0.0038275146484375	1.15814208984375
476	1.162109375	18.2989439537996	0.003897705078125	1.16119384765625
477	1.16455078125	18.323343953738	0.0039599609375	1.16363525390625
478	1.1669921875	18.3477439536764	0.00404022216796875	1.1663818359375
479	1.16943359375	18.3721439536148	0.0040936279296875	1.16851806640625
480	1.171875	18.3965439535532	0.0041693115234375	1.1712646484375
481	1.17431640625	18.4209439534916	0.00421630859375	1.173095703125
482	1.1767578125	18.44534395343	0.0042816162109375	1.175537109375
483	1.17919921875	18.4697439533684	0.00433349609375	1.17828369140625
484	1.181640625	18.4941439533068	0.0043853759765625	1.180419921875
485	1.18408203125	18.5185439532452	0.004437255859375	1.182861328125
486	1.1865234375	18.5429439531836	0.004476318359375	1.18560791015625
487	1.18896484375	18.567343953122	0.00452972412109375	1.18743896484375
488	1.19140625	18.5917439530604	0.00456451416015625	1.190185546875
489	1.19384765625	18.6161439529988	0.00461151123046875	1.19293212890625
490	1.1962890625	18.6405439529372	0.0046435546875	1.1956787109375
491	1.19873046875	18.6649439528755	0.0046826171875	1.197509765625
492	1.201171875	18.6893439528139	0.00471832275390625	1.20025634765625
493	1.19873046875	18.7137439527523	0.004681396484375	1.197509765625
494	1.1962890625	18.7381439526907	0.0046490478515625	1.19537353515625
495	1.19384765625	18.7625439526291	0.004603271484375	1.19293212890625
496	1.19140625	18.7869439525675	0.00457183837890625	1.1907958984375
497	1.18896484375	18.8113439525059	0.00452301025390625	1.187744140625
498	1.1865234375	18.8357439524443	0.00448486328125	1.18560791015625
499	1.18408203125	18.8601439523827	0.00443359375	1.182861328125
500	1.181640625	18.8845439523211	0.00438385009765625	1.180419921875
501	1.17919921875	18.9089439522595	0.00433807373046875	1.177978515625
502	1.1767578125	18.9333439521979	0.00427642822265625	1.17584228515625
503	1.17431640625	18.9577439521363	0.004229736328125	1.17340087890625
504	1.171875	18.9821439520747	0.00415557861328125	1.17095947265625
505	1.16943359375	19.0065439520131	0.0041058349609375	1.1688232421875
506	1.1669921875	19.0309439519515	0.00403228759765625	1.16607666015625
507	1.16455078125	19.0553439518899	0.0039703369140625	1.16363525390625
508	1.162109375	19.0797439518283	0.00389923095703125	1.16119384765625
509	1.15966796875	19.1041439517667	0.00381988525390625	1.15875244140625
510	1.1572265625	19.1285439517051	0.00376068115234375	1.156005859375
511	1.15478515625	19.1529439516435	0.00367095947265625	1.15386962890625
512	1.15234375	19.1773439515819	0.003612060546875	1.15142822265625
513	1.14990234375	19.2017439515203	0.0035162353515625	1.148681640625
514	1.1474609375	19.2261439514587	0.0034521484375	1.146240234375
515	1.14501953125	19.250543951397	0.00336883544921875	1.14410400390625
516	1.142578125	19.2749439513354	0.00329071044921875	1.1419677734375
517	1.14013671875	19.2993439512738	0.00321868896484375	1.13922119140625
518	1.1376953125	19.3237439512122	0.00312408447265625	1.13616943359375
519	1.13525390625	19.3481439511506	0.00306610107421875	1.13433837890625
520	1.1328125	19.372543951089	0.00296844482421875	1.13189697265625
521	1.13037109375	19.3969439510274	0.002908935546875	1.12945556640625
522	1.1279296875	19.4213439509658	0.00281341552734375	1.12701416015625
523	1.12548828125	19.4457439509042	0.00274322509765625	1.1248779296875
524	1.123046875	19.4701439508426	0.002667236328125	1.121826171875
525	1.12060546875	19.494543950781	0.0025823974609375	1.119384765625
526	1.1181640625	19.5189439507194	0.0025189208984375	1.116943359375
527	1.11572265625	19.5433439506578	0.00241851806640625	1.1151123046875
528	1.11328125	19.5677439505962	0.00236572265625	1.112060546875
529	1.11083984375	19.5921439505346	0.00226898193359375	1.10992431640625
530	1.1083984375	19.616543950473	0.0022088623046875	1.10748291015625
531	1.10595703125	19.6409439504114	0.00212127685546875	1.104736328125
532	1.103515625	19.6653439503498	0.00204437255859375	1.10198974609375
533	1.10107421875	19.6897439502882	0.00197998046875	1.10015869140625
534	1.0986328125	19.7141439502266	0.0018878173828125	1.097412109375
535	1.09619140625	19.738543950165	0.0018341064453125	1.09466552734375
536	1.09375	19.7629439501034	0.001732177734375	1.09283447265625
537	1.09130859375	19.7873439500418	0.00168182373046875	1.09039306640625
538	1.0888671875	19.8117439499802	0.001590576171875	1.087646484375
539	1.08642578125	19.8361439499186	0.00152618408203125	1.08551025390625
540	1.083984375	19.8605439498569	0.00144989013671875	1.08306884765625
541	1.08154296875	19.8849439497953	0.00136474609375	1.080322265625
542	1.0791015625	19.9093439497337	0.001312255859375	1.07818603515625
543	1.07666015625	19.9337439496721	0.0012152099609375	1.075439453125
544	1.07421875	19.9581439496105	0.00116851806640625	1.0736083984375
545	1.07177734375	19.9825439495489	0.00106842041015625	1.07086181640625
546	1.0693359375	20.0069439494873	0.00101593017578125	1.06842041015625
547	1.06689453125	20.0313439494257	0.00093505859375	1.0662841796875
548	1.064453125	20.0557439493641	0.00086334228515625	1.06353759765625
549	1.06201171875	20.0801439493025	0.0008013916015625	1.0614013671875
550	1.0595703125	20.1045439492409	0.00070831298828125	1.05865478515625
551	1.05712890625	20.1289439491793	0.00066650390625	1.05621337890625
552	1.0546875	20.1533439491177	0.000567626953125	1.053466796875
553	1.05224609375	20.1777439490561	0.00052459716796875	1.05133056640625
554	1.0498046875	20.2021439489945	0.00043145751953125	1.04827880859375
555	1.04736328125	20.2265439489329	0.000372528076171875	1.04644775390625
556	1.044921875	20.2509439488713	0.000305877685546875	1.04461669921875
557	1.04248046875	20.2753439488097	0.0002254638671875	1.041259765625
558	1.0400390625	20.2997439487481	0.000178802490234375	1.03912353515625
559	1.03759765625	20.3241439486865	7.9071044921875E-05	1.03668212890625
560	1.03515625	20.3485439486249	4.4677734375E-05	1.03424072265625
561	1.03271484375	20.3729439485633	-5.0140380859375E-05	1.03179931640625
562	1.0302734375	20.3973439485017	-9.4635009765625E-05	1.029052734375
563	1.02783203125	20.4217439484401	-0.0001751708984375	1.026611328125
564	1.025390625	20.4461439483784	-0.000242919921875	1.02447509765625
565	1.02294921875	20.4705439483168	-0.00029241943359375	1.021728515625
566	1.0205078125	20.4949439482552	-0.0003824462890625	1.0198974609375
567	1.01806640625	20.5193439481936	-0.000414886474609375	1.016845703125
568	1.015625	20.543743948132	-0.000516357421875	1.0150146484375
569	1.01318359375	20.5681439480704	-0.00054656982421875	1.0125732421875
570	1.0107421875	20.5925439480088	-0.000634765625	1.00982666015625
571	1.00830078125	20.6169439479472	-0.00068389892578125	1.00738525390625
572	1.005859375	20.6413439478856	-0.0007476806640625	1.0052490234375
573	1.00341796875	20.665743947824	-0.00082672119140625	1.00311279296875
574	1.0009765625	20.6901439477624	-0.00085845947265625	1.00006103515625
575	0.99853515625	20.7145439477008	-0.000955810546875	0.99761962890625
576	0.99609375	20.7389439476392	-0.0009771728515625	0.99517822265625
577	0.99365234375	20.7633439475776	-0.00107696533203125	0.992431640625
578	0.9912109375	20.787743947516	-0.00110809326171875	0.989990234375
579	0.98876953125	20.8121439474544	-0.001181640625	0.98846435546875
580	0.986328125	20.8365439473928	-0.00124176025390625	0.985107421875
581	0.98388671875	20.8609439473312	-0.0012841796875	0.98297119140625
582	0.9814453125	20.8853439472696	-0.0013751220703125	0.980224609375
583	0.97900390625	20.909743947208	-0.00139007568359375	0.977783203125
584	0.9765625	20.9341439471464	-0.00149078369140625	0.97564697265625
585	0.97412109375	20.9585439470848	-0.0015069580078125	0.972900390625
586	0.9716796875	20.9829439470232	-0.0015960693359375	0.9710693359375
587	0.96923828125	21.0073439469616	-0.00163543701171875	0.96832275390625
588	0.966796875	21.0317439469	-0.00168731689453125	0.965576171875
589	0.96435546875	21.0561439468383	-0.0017608642578125	0.96343994140625
590	0.9619140625	21.0805439467767	-0.0017803955078125	0.96099853515625
591	0.95947265625	21.1049439467151	-0.001881103515625	0.95855712890625
592	0.95703125	21.1293439466535	-0.00188323974609375	0.955810546875
593	0.95458984375	21.1537439465919	-0.00197998046875	0.95367431640625
594	0.9521484375	21.1781439465303	-0.00199798583984375	0.9515380859375
595	0.94970703125	21.2025439464687	-0.0020684814453125	0.94818115234375
596	0.947265625	21.2269439464071	-0.00212127685546875	0.94635009765625
597	0.94482421875	21.2513439463455	-0.002147216796875	0.943603515625
598	0.9423828125	21.2757439462839	-0.00223602294921875	0.94146728515625
599	0.93994140625	21.3001439462223	-0.0022344970703125	0.938720703125
600	0.9375	21.3245439461607	-0.0023382568359375	0.936279296875
601	0.93505859375	21.3489439460991	-0.00233551025390625	0.93414306640625
602	0.9326171875	21.3733439460375	-0.00241912841796875	0.93170166015625
603	0.93017578125	21.3977439459759	-0.0024468994140625	0.928955078125
604	0.927734375	21.4221439459143	-0.00249053955078125	0.92681884765625
605	0.92529296875	21.4465439458527	-0.002562255859375	0.92437744140625
606	0.9228515625	21.4709439457911	-0.00256103515625	0.92132568359375
607	0.92041015625	21.4953439457295	-0.00266021728515625	0.9197998046875
608	0.91796875	21.5197439456679	-0.00264373779296875	0.91705322265625
609	0.91552734375	21.5441439456063	-0.00274200439453125	0.9149169921875
610	0.9130859375	21.5685439455447	-0.0027435302734375	0.911865234375
611	0.91064453125	21.5929439454831	-0.00280426025390625	0.90972900390625
612	0.908203125	21.6173439454215	-0.00285003662109375	0.90728759765625
613	0.90576171875	21.6417439453598	-0.00286224365234375	0.90484619140625
614	0.9033203125	21.6661439452982	-0.00295196533203125	0.9027099609375
615	0.90087890625	21.6905439452366	-0.00292694091796875	0.899658203125
616	0.8984375	21.714943945175	-0.00303070068359375	0.89752197265625
617	0.89599609375	21.7393439451134	-0.00300933837890625	0.89508056640625
618	0.8935546875	21.7637439450518	-0.00309112548828125	0.89263916015625
619	0.89111328125	21.7881439449902	-0.00310699462890625	0.89019775390625
620	0.888671875	21.8125439449286	-0.0031365966796875	0.887451171875
621	0.88623046875	21.836943944867	-0.003203125	0.8856201171875
622	0.8837890625	21.8613439448054	-0.0031842041015625	0.8831787109375
623	0.88134765625	21.8857439447438	-0.0032867431640625	0.88043212890625
624	0.87890625	21.9101439446822	-0.00324798583984375	0.87799072265625
625	0.87646484375	21.9345439446206	-0.003343505859375	0.87554931640625
626	0.8740234375	21.958943944559	-0.00332916259765625	0.87310791015625
627	0.87158203125	21.9833439444974	-0.0033831787109375	0.8709716796875
628	0.869140625	22.0077439444358	-0.00342071533203125	0.867919921875
629	0.86669921875	22.0321439443742	-0.00341522216796875	0.86578369140625
630	0.8642578125	22.0565439443126	-0.00350189208984375	0.8636474609375
631	0.86181640625	22.080943944251	-0.0034588623046875	0.8612060546875
632	0.859375	22.1053439441894	-0.00356292724609375	0.85845947265625
633	0.85693359375	22.1297439441278	-0.00352264404296875	0.855712890625
634	0.8544921875	22.1541439440662	-0.003597412109375	0.853271484375
635	0.85205078125	22.1785439440046	-0.00360198974609375	0.8514404296875
636	0.849609375	22.202943943943	-0.0036199951171875	0.8489990234375
637	0.84716796875	22.2273439438814	-0.00368255615234375	0.8465576171875
638	0.8447265625	22.2517439438197	-0.0036456298828125	0.8441162109375
639	0.84228515625	22.2761439437581	-0.00374359130859375	0.84075927734375
640	0.83984375	22.3005439436965	-0.0036895751953125	0.83892822265625
641	0.83740234375	22.3249439436349	-0.003780517578125	0.83709716796875
642	0.8349609375	22.3493439435733	-0.00375274658203125	0.83404541015625
643	0.83251953125	22.3737439435117	-0.00379547119140625	0.831298828125
644	0.830078125	22.3981439434501	-0.00382598876953125	0.82916259765625
645	0.82763671875	22.4225439433885	-0.00380828857421875	0.82672119140625
646	0.8251953125	22.4469439433269	-0.00389007568359375	0.8245849609375
647	0.82275390625	22.4713439432653	-0.00383270263671875	0.821533203125
648	0.8203125	22.4957439432037	-0.0039288330078125	0.8197021484375
649	0.81787109375	22.5201439431421	-0.0038787841796875	0.816650390625
650	0.8154296875	22.5445439430805	-0.0039453125	0.814208984375
651	0.81298828125	22.5689439430189	-0.003941650390625	0.81207275390625
652	0.810546875	22.5933439429573	-0.00394805908203125	0.809326171875
653	0.80810546875	22.6177439428957	-0.00400299072265625	0.806884765625
654	0.8056640625	22.6421439428341	-0.0039569091796875	0.80474853515625
655	0.80322265625	22.6665439427725	-0.0040478515625	0.80230712890625
656	0.80078125	22.6909439427109	-0.003985595703125	0.79986572265625
657	0.79833984375	22.7153439426493	-0.00406646728515625	0.79742431640625
658	0.7958984375	22.7397439425877	-0.00403472900390625	0.7952880859375
659	0.79345703125	22.7641439425261	-0.0040679931640625	0.79254150390625
660	0.791015625	22.7885439424645	-0.00409210205078125	0.789794921875
661	0.78857421875	22.8129439424029	-0.00406585693359375	0.78765869140625
662	0.7861328125	22.8373439423412	-0.004139404296875	0.78521728515625
663	0.78369140625	22.8617439422796	-0.00407745361328125	0.78277587890625
664	0.78125	22.886143942218	-0.004163818359375	0.7806396484375
665	0.77880859375	22.9105439421564	-0.00411102294921875	0.7781982421875
666	0.7763671875	22.9349439420948	-0.004166259765625	0.77606201171875
667	0.77392578125	22.9593439420332	-0.00416015625	0.7733154296875
668	0.771484375	22.9837439419716	-0.00415863037109375	0.77056884765625
669	0.76904296875	23.00814394191	-0.004208984375	0.76812744140625
670	0.7666015625	23.0325439418484	-0.00415771484375	0.76568603515625
671	0.76416015625	23.0569439417868	-0.00423919677734375	0.76385498046875
672	0.76171875	23.0813439417252	-0.00417724609375	0.7611083984375
673	0.75927734375	23.1057439416636	-0.0042474365234375	0.7586669921875
674	0.7568359375	23.130143941602	-0.004215087890625	0.7562255859375
675	0.75439453125	23.1545439415404	-0.004239501953125	0.7537841796875
676	0.751953125	23.1789439414788	-0.0042620849609375	0.75103759765625
677	0.74951171875	23.2033439414172	-0.00423187255859375	0.7489013671875
678	0.7470703125	23.2277439413556	-0.0042999267578125	0.747589111328125
679	0.74462890625	23.252143941294	-0.00423797607421875	0.74505615234375
680	0.7421875	23.2765439412324	-0.0043145751953125	0.74273681640625
681	0.73974609375	23.3009439411708	-0.00426513671875	0.740264892578125
682	0.7373046875	23.3253439411092	-0.00431060791015625	0.737762451171875
683	0.73486328125	23.3497439410476	-0.004306640625	0.735382080078125
684	0.732421875	23.374143940986	-0.00429779052734375	0.73291015625
685	0.72998046875	23.3985439409244	-0.00434539794921875	0.730560302734375
686	0.7275390625	23.4229439408628	-0.0042938232421875	0.72802734375
687	0.72509765625	23.4473439408011	-0.0043682861328125	0.7257080078125
688	0.72265625	23.4717439407395	-0.0043084716796875	0.72314453125
689	0.72021484375	23.4961439406779	-0.0043695068359375	0.72076416015625
690	0.7177734375	23.5205439406163	-0.0043414306640625	0.71832275390625
691	0.71533203125	23.5449439405547	-0.00435791015625	0.715850830078125
692	0.712890625	23.5693439404931	-0.00438079833984375	0.7135009765625
693	0.71044921875	23.5937439404315	-0.004346923828125	0.710968017578125
694	0.7080078125	23.6181439403699	-0.00441009521484375	0.708587646484375
695	0.70556640625	23.6425439403083	-0.0043505859375	0.706085205078125
696	0.703125	23.6669439402467	-0.00441925048828125	0.703704833984375
697	0.70068359375	23.6913439401851	-0.00437286376953125	0.701263427734375
698	0.6982421875	23.7157439401235	-0.00441131591796875	0.698760986328125
699	0.69580078125	23.7401439400619	-0.0044085693359375	0.69635009765625
700	0.693359375	23.7645439400003	-0.00439697265625	0.693878173828125
701	0.69091796875	23.7889439399387	-0.00444183349609375	0.691558837890625
702	0.6884765625	23.8133439398771	-0.0043902587890625	0.688995361328125
703	0.68603515625	23.8377439398155	-0.00445831298828125	0.686614990234375
704	0.68359375	23.8621439397539	-0.00440185546875	0.6842041015625
705	0.68115234375	23.8865439396923	-0.0044561767578125	0.6817626953125
706	0.6787109375	23.9109439396307	-0.00443084716796875	0.679351806640625
707	0.67626953125	23.9353439395691	-0.00444122314453125	0.676788330078125
708	0.673828125	23.9597439395075	-0.0044647216796875	0.674468994140625
709	0.67138671875	23.9841439394459	-0.0044293212890625	0.671966552734375
710	0.6689453125	24.0085439393843	-0.00448883056640625	0.66961669921875
711	0.66650390625	24.0329439393226	-0.0044305419921875	0.66705322265625
712	0.6640625	24.057343939261	-0.004493408203125	0.66473388671875
713	0.66162109375	24.0817439391994	-0.00445037841796875	0.662261962890625
714	0.6591796875	24.1061439391378	-0.00448211669921875	0.6597900390625
715	0.65673828125	24.1305439390762	-0.0044818115234375	0.657379150390625
716	0.654296875	24.1549439390146	-0.00446624755859375	0.654937744140625
717	0.65185546875	24.179343938953	-0.004510498046875	0.652496337890625
718	0.6494140625	24.2037439388914	-0.00445953369140625	0.650054931640625
719	0.64697265625	24.2281439388298	-0.00452301025390625	0.64764404296875
720	0.64453125	24.2525439387682	-0.0044696044921875	0.6451416015625
721	0.64208984375	24.2769439387066	-0.00451812744140625	0.642730712890625
722	0.6396484375	24.301343938645	-0.00449615478515625	0.640350341796875
723	0.63720703125	24.3257439385834	-0.0045025634765625	0.6378173828125
724	0.634765625	24.3501439385218	-0.0045263671875	0.63543701171875
725	0.63232421875	24.3745439384602	-0.0044891357421875	0.6329345703125
726	0.6298828125	24.3989439383986	-0.00454620361328125	0.630584716796875
727	0.62744140625	24.423343938337	-0.00449005126953125	0.62811279296875
728	0.625	24.4477439382754	-0.00454803466796875	0.625701904296875
729	0.62255859375	24.4721439382138	-0.004508056640625	0.623199462890625
730	0.6201171875	24.4965439381522	-0.00453460693359375	0.62078857421875
731	0.61767578125	24.5209439380906	-0.004537353515625	0.618377685546875
732	0.615234375	24.545343938029	-0.00451812744140625	0.615875244140625
733	0.61279296875	24.5697439379674	-0.00456207275390625	0.613525390625
734	0.6103515625	24.5941439379058	-0.00451080322265625	0.611053466796875
735	0.60791015625	24.6185439378442	-0.00457122802734375	0.60858154296875
736	0.60546875	24.6429439377825	-0.0045208740234375	0.606201171875
737	0.60302734375	24.6673439377209	-0.0045635986328125	0.603729248046875
738	0.6005859375	24.6917439376593	-0.0045452880859375	0.601287841796875
739	0.59814453125	24.7161439375977	-0.0045465087890625	0.59881591796875
740	0.595703125	24.7405439375361	-0.00457275390625	0.596466064453125
741	0.59326171875	24.7649439374745	-0.00453338623046875	0.59393310546875
742	0.5908203125	24.7893439374129	-0.00458953857421875	0.59161376953125
743	0.58837890625	24.8137439373513	-0.004534912109375	0.58905029296875
744	0.5859375	24.8381439372897	-0.004588623046875	0.586669921875
745	0.58349609375	24.8625439372281	-0.00455352783203125	0.584197998046875
746	0.5810546875	24.8869439371665	-0.00457489013671875	0.581756591796875
747	0.57861328125	24.9113439371049	-0.0045806884765625	0.579376220703125
748	0.576171875	24.9357439370433	-0.00455810546875	0.57684326171875
749	0.57373046875	24.9601439369817	-0.0046026611328125	0.574462890625
750	0.5712890625	24.9845439369201	-0.00455169677734375	0.571990966796875
751	0.56884765625	25.0089439368585	-0.004609375	0.569580078125
752	0.56640625	25.0333439367969	-0.00456207275390625	0.567108154296875
753	0.56396484375	25.0577439367353	-0.00459991455078125	0.564605712890625
754	0.5615234375	25.0821439366737	-0.0045855712890625	0.562225341796875
755	0.55908203125	25.1065439366121	-0.00458251953125	0.559783935546875
756	0.556640625	25.1309439365505	-0.004610595703125	0.557403564453125
757	0.55419921875	25.1553439364889	-0.00456878662109375	0.55487060546875
758	0.5517578125	25.1797439364273	-0.0046234130859375	0.552520751953125
759	0.54931640625	25.2041439363657	-0.0045709228515625	0.550018310546875
760	0.546875	25.228543936304	-0.00462066650390625	0.547637939453125
761	0.54443359375	25.2529439362424	-0.00458892822265625	0.545166015625
762	0.5419921875	25.2773439361808	-0.004605712890625	0.542724609375
763	0.53955078125	25.3017439361192	-0.0046148681640625	0.54034423828125
764	0.537109375	25.3261439360576	-0.0045892333984375	0.537841796875
765	0.53466796875	25.350543935996	-0.00463409423828125	0.53546142578125
766	0.5322265625	25.3749439359344	-0.00458282470703125	0.532958984375
767	0.52978515625	25.3993439358728	-0.00463775634765625	0.530517578125
768	0.52734375	25.4237439358112	-0.00459320068359375	0.528076171875
769	0.52490234375	25.4481439357496	-0.00462646484375	0.525604248046875
770	0.5224609375	25.472543935688	-0.00461578369140625	0.52325439453125
771	0.52001953125	25.4969439356264	-0.004608154296875	0.520721435546875
772	0.517578125	25.5213439355648	-0.0046392822265625	0.518402099609375
773	0.51513671875	25.5457439355032	-0.004595947265625	0.515899658203125
774	0.5126953125	25.5701439354416	-0.00464996337890625	0.51348876953125
775	0.51025390625	25.59454393538	-0.00459869384765625	0.510986328125
776	0.5078125	25.6189439353184	-0.004644775390625	0.508514404296875
777	0.50537109375	25.6433439352568	-0.00461700439453125	0.506134033203125
778	0.5029296875	25.6677439351952	-0.0046282958984375	0.503662109375
779	0.50048828125	25.6921439351336	-0.00464111328125	0.501251220703125
780	0.498046875	25.716543935072	-0.00461212158203125	0.498748779296875
781	0.49560546875	25.7409439350104	-0.0046588134765625	0.49639892578125
782	0.4931640625	25.7653439349488	-0.00460723876953125	0.493927001953125
783	0.49072265625	25.7897439348872	-0.00466033935546875	0.4915771484375
784	0.48828125	25.8141439348256	-0.00461883544921875	0.489044189453125
785	0.48583984375	25.8385439347639	-0.0046478271484375	0.486602783203125
786	0.4833984375	25.8629439347023	-0.0046417236328125	0.484161376953125
787	0.48095703125	25.8873439346407	-0.004630126953125	0.481719970703125
788	0.478515625	25.9117439345791	-0.00466400146484375	0.479339599609375
789	0.47607421875	25.9361439345175	-0.004619140625	0.476837158203125
790	0.4736328125	25.9605439344559	-0.00467193603515625	0.47442626953125
791	0.47119140625	25.9849439343943	-0.00462310791015625	0.471954345703125
792	0.46875	26.0093439343327	-0.00466583251953125	0.46954345703125
793	0.46630859375	26.0337439342711	-0.0046417236328125	0.467071533203125
794	0.4638671875	26.0581439342095	-0.00464813232421875	0.464630126953125
795	0.46142578125	26.0825439341479	-0.00466461181640625	0.46221923828125
796	0.458984375	26.1069439340863	-0.004632568359375	0.459747314453125
797	0.45654296875	26.1313439340247	-0.00467987060546875	0.4573974609375
798	0.4541015625	26.1557439339631	-0.00462860107421875	0.45489501953125
799	0.45166015625	26.1801439339015	-0.00467987060546875	0.452484130859375
800	0.44921875	26.2045439338399	-0.0046417236328125	0.45001220703125
801	0.44677734375	26.2289439337783	-0.004666748046875	0.447601318359375
802	0.4443359375	26.2533439337167	-0.0046636962890625	0.4451904296875
803	0.44189453125	26.2777439336551	-0.0046484375	0.442626953125
804	0.439453125	26.3021439335935	-0.00468414306640625	0.440277099609375
805	0.43701171875	26.3265439335319	-0.004638671875	0.43780517578125
806	0.4345703125	26.3509439334703	-0.0046905517578125	0.4354248046875
807	0.43212890625	26.3753439334087	-0.00464263916015625	0.43292236328125
808	0.4296875	26.3997439333471	-0.00468231201171875	0.430511474609375
809	0.42724609375	26.4241439332854	-0.00466217041015625	0.428070068359375
810	0.4248046875	26.4485439332238	-0.00466552734375	0.42559814453125
811	0.42236328125	26.4729439331622	-0.0046844482421875	0.423187255859375
812	0.419921875	26.4973439331006	-0.00464996337890625	0.420745849609375
813	0.41748046875	26.521743933039	-0.00469818115234375	0.418365478515625
814	0.4150390625	26.5461439329774	-0.00464752197265625	0.415924072265625
815	0.41259765625	26.5705439329158	-0.00469573974609375	0.4134521484375
816	0.41015625	26.5949439328542	-0.0046600341796875	0.41094970703125
817	0.40771484375	26.6193439327926	-0.00468109130859375	0.40850830078125
818	0.4052734375	26.643743932731	-0.00468231201171875	0.4061279296875
819	0.40283203125	26.6681439326694	-0.00466339111328125	0.403656005859375
820	0.400390625	26.6925439326078	-0.00470062255859375	0.401214599609375
821	0.39794921875	26.7169439325462	-0.00465423583984375	0.398712158203125
822	0.3955078125	26.7413439324846	-0.00470550537109375	0.3963623046875
823	0.39306640625	26.765743932423	-0.0046600341796875	0.3939208984375
824	0.390625	26.7901439323614	-0.004696044921875	0.3914794921875
825	0.38818359375	26.8145439322998	-0.00467926025390625	0.3890380859375
826	0.3857421875	26.8389439322382	-0.00467803955078125	0.3865966796875
827	0.38330078125	26.8633439321766	-0.00470062255859375	0.384185791015625
828	0.380859375	26.887743932115	-0.0046636962890625	0.381683349609375
829	0.37841796875	26.9121439320534	-0.0047125244140625	0.37933349609375
830	0.3759765625	26.9365439319918	-0.00466217041015625	0.376739501953125
831	0.37353515625	26.9609439319302	-0.00470794677734375	0.3743896484375
832	0.37109375	26.9853439318686	-0.00467559814453125	0.371978759765625
833	0.36865234375	27.009743931807	-0.0046929931640625	0.36944580078125
834	0.3662109375	27.0341439317453	-0.00469757080078125	0.3670654296875
835	0.36376953125	27.0585439316837	-0.00467498779296875	0.364593505859375
836	0.361328125	27.0829439316221	-0.00471466064453125	0.36224365234375
837	0.35888671875	27.1073439315605	-0.004666748046875	0.359710693359375
838	0.3564453125	27.1317439314989	-0.0047174072265625	0.3572998046875
839	0.35400390625	27.1561439314373	-0.0046734619140625	0.354827880859375
840	0.3515625	27.1805439313757	-0.00470611572265625	0.3524169921875
841	0.34912109375	27.2049439313141	-0.0046929931640625	0.3499755859375
842	0.3466796875	27.2293439312525	-0.00468780517578125	0.347564697265625
843	0.34423828125	27.2537439311909	-0.00471282958984375	0.345123291015625
844	0.341796875	27.2781439311293	-0.00467376708984375	0.34259033203125
845	0.33935546875	27.3025439310677	-0.004722900390625	0.3402099609375
846	0.3369140625	27.3269439310061	-0.0046734619140625	0.3377685546875
847	0.33447265625	27.3513439309445	-0.00471710205078125	0.3353271484375
848	0.33203125	27.3757439308829	-0.0046875	0.3328857421875
849	0.32958984375	27.4001439308213	-0.0047015380859375	0.3304443359375
850	0.3271484375	27.4245439307597	-0.00470947265625	0.328033447265625
851	0.32470703125	27.4489439306981	-0.00468414306640625	0.325531005859375
852	0.322265625	27.4733439306365	-0.00472503662109375	0.323150634765625
853	0.31982421875	27.4977439305749	-0.004676513671875	0.3206787109375
854	0.3173828125	27.5221439305133	-0.00472686767578125	0.318267822265625
855	0.31494140625	27.5465439304517	-0.00468505859375	0.3157958984375
856	0.3125	27.5709439303901	-0.00471435546875	0.313323974609375
857	0.31005859375	27.5953439303285	-0.00470428466796875	0.310943603515625
858	0.3076171875	27.6197439302668	-0.004696044921875	0.3084716796875
859	0.30517578125	27.6441439302052	-0.00472412109375	0.30609130859375
860	0.302734375	27.6685439301436	-0.00468292236328125	0.303558349609375
861	0.30029296875	27.692943930082	-0.0047320556640625	0.30120849609375
862	0.2978515625	27.7173439300204	-0.00468353271484375	0.298675537109375
863	0.29541015625	27.7417439299588	-0.00472503662109375	0.296234130859375
864	0.29296875	27.7661439298972	-0.004698486328125	0.293853759765625
865	0.29052734375	27.7905439298356	-0.004708251953125	0.2913818359375
866	0.2880859375	27.814943929774	-0.00471923828125	0.2890625
867	0.28564453125	27.8393439297124	-0.00469085693359375	0.2864990234375
868	0.283203125	27.8637439296508	-0.00473297119140625	0.28411865234375
869	0.28076171875	27.8881439295892	-0.00468414306640625	0.2816162109375
870	0.2783203125	27.9125439295276	-0.00473297119140625	0.2791748046875
871	0.27587890625	27.936943929466	-0.00469268798828125	0.276702880859375
872	0.2734375	27.9613439294044	-0.0047186279296875	0.274322509765625
873	0.27099609375	27.9857439293428	-0.0047119140625	0.271881103515625
874	0.2685546875	28.0101439292812	-0.00470062255859375	0.269439697265625
875	0.26611328125	28.0345439292196	-0.0047308349609375	0.26702880859375
876	0.263671875	28.058943929158	-0.00468780517578125	0.2645263671875
877	0.26123046875	28.0833439290964	-0.0047369384765625	0.262115478515625
878	0.2587890625	28.1077439290348	-0.0046893310546875	0.2596435546875
879	0.25634765625	28.1321439289732	-0.00472930908203125	0.25726318359375
880	0.25390625	28.1565439289116	-0.0047052001953125	0.254791259765625
881	0.25146484375	28.18094392885	-0.00471160888671875	0.252288818359375
882	0.2490234375	28.2053439287884	-0.0047259521484375	0.25
883	0.24658203125	28.2297439287267	-0.00469512939453125	0.2474365234375
884	0.244140625	28.2541439286651	-0.00473907470703125	0.245086669921875
885	0.24169921875	28.2785439286035	-0.00468994140625	0.242584228515625
886	0.2392578125	28.3029439285419	-0.0047381591796875	0.2401123046875
887	0.23681640625	28.3273439284803	-0.00470062255859375	0.237701416015625
888	0.234375	28.3517439284187	-0.0047235107421875	0.235321044921875
889	0.23193359375	28.3761439283571	-0.00472015380859375	0.232879638671875
890	0.2294921875	28.4005439282955	-0.00470550537109375	0.230255126953125
891	0.22705078125	28.4249439282339	-0.00473876953125	0.22796630859375
892	0.224609375	28.4493439281723	-0.00469482421875	0.225494384765625
893	0.22216796875	28.4737439281107	-0.0047442626953125	0.22314453125
894	0.2197265625	28.4981439280491	-0.0046978759765625	0.220611572265625
895	0.21728515625	28.5225439279875	-0.0047357177734375	0.21807861328125
896	0.21484375	28.5469439279259	-0.0047149658203125	0.215789794921875
897	0.21240234375	28.5713439278643	-0.00471771240234375	0.2132568359375
898	0.2099609375	28.5957439278027	-0.004735107421875	0.2108154296875
899	0.20751953125	28.6201439277411	-0.00470245361328125	0.208343505859375
900	0.205078125	28.6445439276795	-0.00474700927734375	0.20599365234375
901	0.20263671875	28.6689439276179	-0.004698486328125	0.203460693359375
902	0.2001953125	28.6933439275563	-0.00474456787109375	0.20111083984375
903	0.19775390625	28.7177439274947	-0.00470916748046875	0.19866943359375
904	0.1953125	28.7421439274331	-0.0047296142578125	0.19622802734375
905	0.19287109375	28.7665439273715	-0.00472930908203125	0.193817138671875
906	0.1904296875	28.7909439273099	-0.00471160888671875	0.19134521484375
907	0.18798828125	28.8153439272483	-0.00474639892578125	0.18890380859375
908	0.185546875	28.8397439271866	-0.00470123291015625	0.186431884765625
909	0.18310546875	28.864143927125	-0.0047503662109375	0.18408203125
910	0.1806640625	28.8885439270634	-0.00470550537109375	0.181549072265625
911	0.17822265625	28.9129439270018	-0.0047406005859375	0.17913818359375
912	0.17578125	28.9373439269402	-0.00472259521484375	0.1767578125
913	0.17333984375	28.9617439268786	-0.00472259521484375	0.1741943359375
914	0.1708984375	28.986143926817	-0.004742431640625	0.171875
915	0.16845703125	29.0105439267554	-0.00470794677734375	0.1693115234375
916	0.166015625	29.0349439266938	-0.0047540283203125	0.167022705078125
917	0.16357421875	29.0593439266322	-0.0047052001953125	0.16448974609375
918	0.1611328125	29.0837439265706	-0.00475067138671875	0.162109375
919	0.15869140625	29.108143926509	-0.0047174072265625	0.15960693359375
920	0.15625	29.1325439264474	-0.00473541259765625	0.157196044921875
921	0.15380859375	29.1569439263858	-0.004737548828125	0.154815673828125
922	0.1513671875	29.1813439263242	-0.00471771240234375	0.152252197265625
923	0.14892578125	29.2057439262626	-0.00475433349609375	0.14990234375
924	0.146484375	29.230143926201	-0.0047088623046875	0.147491455078125
925	0.14404296875	29.2545439261394	-0.0047576904296875	0.144989013671875
926	0.1416015625	29.2789439260778	-0.00471435546875	0.142547607421875
927	0.13916015625	29.3033439260162	-0.00474761962890625	0.14007568359375
928	0.13671875	29.3277439259546	-0.00473175048828125	0.137664794921875
929	0.13427734375	29.352143925893	-0.0047296142578125	0.13519287109375
930	0.1318359375	29.3765439258314	-0.0047515869140625	0.1328125
931	0.12939453125	29.4009439257698	-0.00471527099609375	0.130340576171875
932	0.126953125	29.4253439257081	-0.00476165771484375	0.1279296875
933	0.12451171875	29.4497439256465	-0.00471343994140625	0.125457763671875
934	0.1220703125	29.4741439255849	-0.004757080078125	0.123016357421875
935	0.11962890625	29.4985439255233	-0.00472564697265625	0.12054443359375
936	0.1171875	29.5229439254617	-0.0047418212890625	0.1181640625
937	0.11474609375	29.5473439254001	-0.00474578857421875	0.115692138671875
938	0.1123046875	29.5717439253385	-0.0047247314453125	0.11322021484375
939	0.10986328125	29.5961439252769	-0.0047613525390625	0.11083984375
940	0.107421875	29.6205439252153	-0.00471588134765625	0.10833740234375
941	0.10498046875	29.6449439251537	-0.00476409912109375	0.105926513671875
942	0.1025390625	29.6693439250921	-0.00472137451171875	0.103515625
943	0.10009765625	29.6937439250305	-0.00475311279296875	0.10101318359375
944	0.09765625	29.7181439249689	-0.00473876953125	0.0986328125
945	0.09521484375	29.7425439249073	-0.0047357177734375	0.09613037109375
946	0.0927734375	29.7669439248457	-0.00475830078125	0.09375
947	0.09033203125	29.7913439247841	-0.00472198486328125	0.091278076171875
948	0.087890625	29.8157439247225	-0.00476837158203125	0.0888671875
949	0.08544921875	29.8401439246609	-0.004720458984375	0.08636474609375
950	0.0830078125	29.8645439245993	-0.0047637939453125	0.083953857421875
951	0.08056640625	29.8889439245377	-0.0047332763671875	0.081573486328125
952	0.078125	29.9133439244761	-0.00474853515625	0.07904052734375
953	0.07568359375	29.9377439244145	-0.00475311279296875	0.07666015625
954	0.0732421875	29.9621439243529	-0.0047308349609375	0.074188232421875
955	0.07080078125	29.9865439242913	-0.00476806640625	0.071807861328125
956	0.068359375	30.0109439242297	-0.004722900390625	0.069305419921875
957	0.06591796875	30.035343924168	-0.00477081298828125	0.06695556640625
958	0.0634765625	30.0597439241064	-0.0047283935546875	0.064453125
959	0.06103515625	30.0841439240448	-0.0047589111328125	0.062042236328125
960	0.05859375	30.1085439239832	-0.0047454833984375	0.059539794921875
961	0.05615234375	30.1329439239216	-0.0047418212890625	0.057037353515625
962	0.0537109375	30.15734392386	-0.004764404296875	0.05474853515625
963	0.05126953125	30.1817439237984	-0.00472747802734375	0.052215576171875
964	0.048828125	30.2061439237368	-0.0047735595703125	0.049774169921875
965	0.04638671875	30.2305439236752	-0.00472564697265625	0.0466064453125
966	0.0439453125	30.2549439236136	-0.00476898193359375	0.04420166015625
967	0.04150390625	30.279343923552	-0.004737548828125	0.0417327880859375
968	0.0390625	30.3037439234904	-0.00475341796875	0.0392730712890625
969	0.03662109375	30.3281439234288	-0.00475738525390625	0.036871337890625
970	0.0341796875	30.3525439233672	-0.004736328125	0.03438720703125
971	0.03173828125	30.3769439233056	-0.00477264404296875	0.032012939453125
972	0.029296875	30.401343923244	-0.00472747802734375	0.0294921875
973	0.02685546875	30.4257439231824	-0.00477508544921875	0.027105712890625
974	0.0244140625	30.4501439231208	-0.00473236083984375	0.024639892578125
975	0.02197265625	30.4745439230592	-0.0047637939453125	0.022210693359375
976	0.01953125	30.4989439229976	-0.00474884033203125	0.0197723388671875
977	0.01708984375	30.523343922936	-0.00474639892578125	0.017303466796875
978	0.0146484375	30.5477439228744	-0.00476806640625	0.0149383544921875
979	0.01220703125	30.5721439228128	-0.00473175048828125	0.0124298095703125
980	0.009765625	30.5965439227512	-0.00477691650390625	0.0100555419921875
981	0.00732421875	30.6209439226895	-0.0047296142578125	0.007537841796875
982	0.0048828125	30.6453439226279	-0.0047723388671875	0.00513305664062499
983	0.00244140625	30.6697439225663	-0.0047412109375	0.0026885986328125
984	0	30.6941439225047	-0.004757080078125	0.000225830078125003
985	0.00244140625	30.7185439224431	-0.00475860595703125	0.00269165039062499
986	0.0048828125	30.7429439223815	-0.004736328125	0.005108642578125
