Index	Potential applied (V)	Time (s)	WE(1).Current (A)	WE(1).Potential (V)
1	0.00244140625	234.844171407075	-0.001134033203125	0.0026123046875
2	0.0048828125	234.868571407014	-0.00111114501953125	0.00502929687500001
3	0.00732421875	234.892971406952	-0.0011376953125	0.00754394531249999
4	0.009765625	234.917371406891	-0.00110595703125	0.00992431640624999
5	0.01220703125	234.941771406829	-0.0011383056640625	0.012420654296875
6	0.0146484375	234.966171406767	-0.00111175537109375	0.0147979736328125
7	0.01708984375	234.990571406706	-0.00112548828125	0.017230224609375
8	0.01953125	235.014971406644	-0.0011212158203125	0.0196868896484375
9	0.02197265625	235.039371406583	-0.00111663818359375	0.0221282958984375
10	0.0244140625	235.063771406521	-0.00113525390625	0.02459716796875
11	0.02685546875	235.088171406459	-0.0011077880859375	0.027008056640625
12	0.029296875	235.112571406398	-0.0011358642578125	0.0295257568359375
13	0.03173828125	235.136971406336	-0.0011029052734375	0.03187255859375
14	0.0341796875	235.161371406275	-0.0011328125	0.0343597412109375
15	0.03662109375	235.185771406213	-0.0011114501953125	0.036767578125
16	0.0390625	235.210171406151	-0.0011187744140625	0.0392120361328125
17	0.04150390625	235.23457140609	-0.001119384765625	0.041668701171875
18	0.0439453125	235.258971406028	-0.00110809326171875	0.0441192626953125
19	0.04638671875	235.283371405967	-0.00113037109375	0.046588134765625
20	0.048828125	235.307771405905	-0.0010992431640625	0.0489654541015625
21	0.05126953125	235.332171405843	-0.00112762451171875	0.051513671875
22	0.0537109375	235.356571405782	-0.0010955810546875	0.053924560546875
23	0.05615234375	235.38097140572	-0.00112060546875	0.056396484375
24	0.05859375	235.405371405659	-0.00110595703125	0.058837890625
25	0.06103515625	235.429771405597	-0.00110595703125	0.06121826171875
26	0.0634765625	235.454171405535	-0.0011126708984375	0.063690185546875
27	0.06591796875	235.478571405474	-0.0010955810546875	0.06610107421875
28	0.068359375	235.502971405412	-0.00112213134765625	0.068634033203125
29	0.07080078125	235.527371405351	-0.0010888671875	0.07098388671875
30	0.0732421875	235.551771405289	-0.00111663818359375	0.073455810546875
31	0.07568359375	235.576171405227	-0.00108795166015625	0.07586669921875
32	0.078125	235.600571405166	-0.0011090087890625	0.078277587890625
33	0.08056640625	235.624971405104	-0.00110137939453125	0.08074951171875
34	0.0830078125	235.649371405043	-0.0010968017578125	0.083160400390625
35	0.08544921875	235.673771404981	-0.00110931396484375	0.085662841796875
36	0.087890625	235.698171404919	-0.00108795166015625	0.08807373046875
37	0.09033203125	235.722571404858	-0.0011181640625	0.090576171875
38	0.0927734375	235.746971404796	-0.001085205078125	0.092926025390625
39	0.09521484375	235.771371404735	-0.00111236572265625	0.09539794921875
40	0.09765625	235.795771404673	-0.00108795166015625	0.097869873046875
41	0.10009765625	235.820171404611	-0.00110443115234375	0.100311279296875
42	0.1025390625	235.84457140455	-0.001103515625	0.102752685546875
43	0.10498046875	235.868971404488	-0.00109283447265625	0.1051025390625
44	0.107421875	235.893371404426	-0.00110992431640625	0.10760498046875
45	0.10986328125	235.917771404365	-0.00108489990234375	0.11004638671875
46	0.1123046875	235.942171404303	-0.001116943359375	0.112518310546875
47	0.11474609375	235.966571404242	-0.00108367919921875	0.11492919921875
48	0.1171875	235.99097140418	-0.0011077880859375	0.117340087890625
49	0.11962890625	236.015371404118	-0.00108856201171875	0.11981201171875
50	0.1220703125	236.039771404057	-0.0010992431640625	0.122222900390625
51	0.12451171875	236.064171403995	-0.0011029052734375	0.12469482421875
52	0.126953125	236.088571403934	-0.00108734130859375	0.12713623046875
53	0.12939453125	236.112971403872	-0.001107177734375	0.129608154296875
54	0.1318359375	236.13737140381	-0.001077880859375	0.132049560546875
55	0.13427734375	236.161771403749	-0.0011102294921875	0.134490966796875
56	0.13671875	236.186171403687	-0.001077880859375	0.13690185546875
57	0.13916015625	236.210571403626	-0.00109771728515625	0.1392822265625
58	0.1416015625	236.234971403564	-0.001083984375	0.141754150390625
59	0.14404296875	236.259371403502	-0.001087646484375	0.1441650390625
60	0.146484375	236.283771403441	-0.0010968017578125	0.14666748046875
61	0.14892578125	236.308171403379	-0.0010760498046875	0.149078369140625
62	0.1513671875	236.332571403318	-0.00109954833984375	0.1514892578125
63	0.15380859375	236.356971403256	-0.00106842041015625	0.15399169921875
64	0.15625	236.381371403194	-0.00110076904296875	0.156463623046875
65	0.15869140625	236.405771403133	-0.00107208251953125	0.1588134765625
66	0.1611328125	236.430171403071	-0.001087646484375	0.16131591796875
67	0.16357421875	236.45457140301	-0.0010797119140625	0.163787841796875
68	0.166015625	236.478971402948	-0.0010784912109375	0.166168212890625
69	0.16845703125	236.503371402886	-0.00109375	0.16864013671875
70	0.1708984375	236.527771402825	-0.00106964111328125	0.1710205078125
71	0.17333984375	236.552171402763	-0.0010968017578125	0.173583984375
72	0.17578125	236.576571402702	-0.001065673828125	0.1759033203125
73	0.17822265625	236.60097140264	-0.00109710693359375	0.17840576171875
74	0.1806640625	236.625371402578	-0.00107330322265625	0.180816650390625
75	0.18310546875	236.649771402517	-0.0010845947265625	0.1832275390625
76	0.185546875	236.674171402455	-0.00108306884765625	0.185760498046875
77	0.18798828125	236.698571402394	-0.00107635498046875	0.1881103515625
78	0.1904296875	236.722971402332	-0.00109619140625	0.1905517578125
79	0.19287109375	236.74737140227	-0.00106781005859375	0.193023681640625
80	0.1953125	236.771771402209	-0.00109649658203125	0.195526123046875
81	0.19775390625	236.796171402147	-0.001064453125	0.197906494140625
82	0.2001953125	236.820571402086	-0.00109344482421875	0.2003173828125
83	0.20263671875	236.844971402024	-0.00107452392578125	0.20281982421875
84	0.205078125	236.869371401962	-0.00108001708984375	0.205169677734375
85	0.20751953125	236.893771401901	-0.00108245849609375	0.207611083984375
86	0.2099609375	236.918171401839	-0.0010693359375	0.2100830078125
87	0.21240234375	236.942571401778	-0.00109283447265625	0.21258544921875
88	0.21484375	236.966971401716	-0.0010614013671875	0.214996337890625
89	0.21728515625	236.991371401654	-0.0010894775390625	0.21746826171875
90	0.2197265625	237.015771401593	-0.00105865478515625	0.219879150390625
91	0.22216796875	237.040171401531	-0.00108306884765625	0.22235107421875
92	0.224609375	237.064571401469	-0.0010699462890625	0.224761962890625
93	0.22705078125	237.088971401408	-0.00106903076171875	0.227203369140625
94	0.2294921875	237.113371401346	-0.0010772705078125	0.22967529296875
95	0.23193359375	237.137771401285	-0.00105926513671875	0.232086181640625
96	0.234375	237.162171401223	-0.00108673095703125	0.234527587890625
97	0.23681640625	237.186571401161	-0.00105438232421875	0.2369384765625
98	0.2392578125	237.2109714011	-0.0010821533203125	0.239410400390625
99	0.24169921875	237.235371401038	-0.00105438232421875	0.241851806640625
100	0.244140625	237.259771400977	-0.0010748291015625	0.244293212890625
101	0.24658203125	237.284171400915	-0.0010687255859375	0.246734619140625
102	0.2490234375	237.308571400853	-0.0010626220703125	0.24920654296875
103	0.25146484375	237.332971400792	-0.00107635498046875	0.251617431640625
104	0.25390625	237.35737140073	-0.00105499267578125	0.25408935546875
105	0.25634765625	237.381771400669	-0.00108551025390625	0.25653076171875
106	0.2587890625	237.406171400607	-0.00105194091796875	0.258941650390625
107	0.26123046875	237.430571400545	-0.0010784912109375	0.261383056640625
108	0.263671875	237.454971400484	-0.0010552978515625	0.2637939453125
109	0.26611328125	237.479371400422	-0.00107086181640625	0.266204833984375
110	0.2685546875	237.503771400361	-0.001070556640625	0.268707275390625
111	0.27099609375	237.528171400299	-0.00105926513671875	0.271148681640625
112	0.2734375	237.552571400237	-0.0010772705078125	0.273590087890625
113	0.27587890625	237.576971400176	-0.0010516357421875	0.275970458984375
114	0.2783203125	237.601371400114	-0.00108367919921875	0.278472900390625
115	0.28076171875	237.625771400053	-0.001051025390625	0.2808837890625
116	0.283203125	237.650171399991	-0.00107391357421875	0.2833251953125
117	0.28564453125	237.674571399929	-0.0010552978515625	0.2857666015625
118	0.2880859375	237.698971399868	-0.00106414794921875	0.28826904296875
119	0.29052734375	237.723371399806	-0.00106903076171875	0.2906494140625
120	0.29296875	237.747771399745	-0.00105255126953125	0.293121337890625
121	0.29541015625	237.772171399683	-0.001072998046875	0.295562744140625
122	0.2978515625	237.796571399621	-0.0010430908203125	0.29803466796875
123	0.30029296875	237.82097139956	-0.001075439453125	0.3004150390625
124	0.302734375	237.845371399498	-0.00104400634765625	0.302886962890625
125	0.30517578125	237.869771399437	-0.00106201171875	0.3052978515625
126	0.3076171875	237.894171399375	-0.0010491943359375	0.30767822265625
127	0.31005859375	237.918571399313	-0.00105224609375	0.310211181640625
128	0.3125	237.942971399252	-0.00106292724609375	0.312652587890625
129	0.31494140625	237.96737139919	-0.001041259765625	0.315032958984375
130	0.3173828125	237.991771399129	-0.00106597900390625	0.317535400390625
131	0.31982421875	238.016171399067	-0.00103515625	0.3199462890625
132	0.322265625	238.040571399005	-0.00106689453125	0.322418212890625
133	0.32470703125	238.064971398944	-0.00103973388671875	0.324798583984375
134	0.3271484375	238.089371398882	-0.0010546875	0.327239990234375
135	0.32958984375	238.113771398821	-0.0010479736328125	0.329742431640625
136	0.33203125	238.138171398759	-0.00104583740234375	0.33221435546875
137	0.33447265625	238.162571398697	-0.00106201171875	0.334564208984375
138	0.3369140625	238.186971398636	-0.00103729248046875	0.3370361328125
139	0.33935546875	238.211371398574	-0.00106475830078125	0.33953857421875
140	0.341796875	238.235771398512	-0.00103302001953125	0.34185791015625
141	0.34423828125	238.260171398451	-0.001063232421875	0.3443603515625
142	0.3466796875	238.284571398389	-0.00104034423828125	0.346710205078125
143	0.34912109375	238.308971398328	-0.0010504150390625	0.349212646484375
144	0.3515625	238.333371398266	-0.0010491943359375	0.351654052734375
145	0.35400390625	238.357771398204	-0.00104156494140625	0.354095458984375
146	0.3564453125	238.382171398143	-0.00106201171875	0.356536865234375
147	0.35888671875	238.406571398081	-0.0010333251953125	0.35906982421875
148	0.361328125	238.43097139802	-0.00106109619140625	0.361541748046875
149	0.36376953125	238.455371397958	-0.00102874755859375	0.363922119140625
150	0.3662109375	238.479771397896	-0.001055908203125	0.3663330078125
151	0.36865234375	238.504171397835	-0.00103759765625	0.368743896484375
152	0.37109375	238.528571397773	-0.00104095458984375	0.371185302734375
153	0.37353515625	238.552971397712	-0.00104522705078125	0.3736572265625
154	0.3759765625	238.57737139765	-0.0010302734375	0.376129150390625
155	0.37841796875	238.601771397588	-0.00105438232421875	0.378570556640625
156	0.380859375	238.626171397527	-0.00102264404296875	0.380950927734375
157	0.38330078125	238.650571397465	-0.0010498046875	0.383453369140625
158	0.3857421875	238.674971397404	-0.0010198974609375	0.385894775390625
159	0.38818359375	238.699371397342	-0.00104248046875	0.388275146484375
160	0.390625	238.72377139728	-0.0010308837890625	0.3907470703125
161	0.39306640625	238.748171397219	-0.001029052734375	0.393157958984375
162	0.3955078125	238.772571397157	-0.0010382080078125	0.395660400390625
163	0.39794921875	238.796971397096	-0.00101959228515625	0.3980712890625
164	0.400390625	238.821371397034	-0.00104736328125	0.400543212890625
165	0.40283203125	238.845771396972	-0.00101409912109375	0.402923583984375
166	0.4052734375	238.870171396911	-0.0010406494140625	0.405426025390625
167	0.40771484375	238.894571396849	-0.001014404296875	0.407867431640625
168	0.41015625	238.918971396788	-0.00103302001953125	0.4102783203125
169	0.41259765625	238.943371396726	-0.0010284423828125	0.412689208984375
170	0.4150390625	238.967771396664	-0.001021728515625	0.4151611328125
171	0.41748046875	238.992171396603	-0.00103515625	0.41766357421875
172	0.419921875	239.016571396541	-0.00101348876953125	0.41998291015625
173	0.42236328125	239.04097139648	-0.00104278564453125	0.4224853515625
174	0.4248046875	239.065371396418	-0.00101043701171875	0.424896240234375
175	0.42724609375	239.089771396356	-0.00103515625	0.42730712890625
176	0.4296875	239.114171396295	-0.0010125732421875	0.4298095703125
177	0.43212890625	239.138571396233	-0.00102630615234375	0.4322509765625
178	0.4345703125	239.162971396172	-0.0010272216796875	0.434661865234375
179	0.43701171875	239.18737139611	-0.00101470947265625	0.437103271484375
180	0.439453125	239.211771396048	-0.0010321044921875	0.439605712890625
181	0.44189453125	239.236171395987	-0.00100555419921875	0.442047119140625
182	0.4443359375	239.260571395925	-0.001036376953125	0.444488525390625
183	0.44677734375	239.284971395864	-0.0010028076171875	0.446868896484375
184	0.44921875	239.309371395802	-0.0010235595703125	0.449310302734375
185	0.45166015625	239.33377139574	-0.00100555419921875	0.4517822265625
186	0.4541015625	239.358171395679	-0.00101226806640625	0.454193115234375
187	0.45654296875	239.382571395617	-0.0010174560546875	0.4566650390625
188	0.458984375	239.406971395556	-0.00100006103515625	0.45904541015625
189	0.46142578125	239.431371395494	-0.00101898193359375	0.461578369140625
190	0.4638671875	239.455771395432	-0.0009893798828125	0.46392822265625
191	0.46630859375	239.480171395371	-0.00102020263671875	0.466400146484375
192	0.46875	239.504571395309	-0.00098968505859375	0.468841552734375
193	0.47119140625	239.528971395247	-0.00100677490234375	0.471221923828125
194	0.4736328125	239.553371395186	-0.00099456787109375	0.4737548828125
195	0.47607421875	239.577771395124	-0.00099639892578125	0.476165771484375
196	0.478515625	239.602171395063	-0.00100616455078125	0.478607177734375
197	0.48095703125	239.626571395001	-0.0009844970703125	0.481048583984375
198	0.4833984375	239.650971394939	-0.00100738525390625	0.483551025390625
199	0.48583984375	239.675371394878	-0.00097747802734375	0.485931396484375
200	0.48828125	239.699771394816	-0.00100830078125	0.4884033203125
201	0.49072265625	239.724171394755	-0.000982666015625	0.490753173828125
202	0.4931640625	239.748571394693	-0.00099517822265625	0.4931640625
203	0.49560546875	239.772971394631	-0.00098907470703125	0.495697021484375
204	0.498046875	239.79737139457	-0.000985107421875	0.49810791015625
205	0.50048828125	239.821771394508	-0.0010015869140625	0.5006103515625
206	0.5029296875	239.846171394447	-0.00097625732421875	0.503021240234375
207	0.50537109375	239.870571394385	-0.00100250244140625	0.5054931640625
208	0.5078125	239.894971394323	-0.00097076416015625	0.507904052734375
209	0.51025390625	239.919371394262	-0.000999755859375	0.510345458984375
210	0.5126953125	239.9437713942	-0.00097808837890625	0.51275634765625
211	0.51513671875	239.968171394139	-0.00098541259765625	0.515167236328125
212	0.517578125	239.992571394077	-0.0009844970703125	0.51763916015625
213	0.52001953125	240.016971394015	-0.0009747314453125	0.52008056640625
214	0.5224609375	240.041371393954	-0.0009942626953125	0.5225830078125
215	0.52490234375	240.065771393892	-0.00096588134765625	0.524932861328125
216	0.52734375	240.090171393831	-0.00099151611328125	0.5274658203125
217	0.52978515625	240.114571393769	-0.00095947265625	0.529815673828125
218	0.5322265625	240.138971393707	-0.00098388671875	0.532318115234375
219	0.53466796875	240.163371393646	-0.00096649169921875	0.534759521484375
220	0.537109375	240.187771393584	-0.0009686279296875	0.53717041015625
221	0.53955078125	240.212171393523	-0.00097137451171875	0.53961181640625
222	0.5419921875	240.236571393461	-0.000955810546875	0.5419921875
223	0.54443359375	240.260971393399	-0.000977783203125	0.54449462890625
224	0.546875	240.285371393338	-0.00094573974609375	0.54693603515625
225	0.54931640625	240.309771393276	-0.00097137451171875	0.54937744140625
226	0.5517578125	240.334171393215	-0.000941162109375	0.5518798828125
227	0.55419921875	240.358571393153	-0.0009613037109375	0.554229736328125
228	0.556640625	240.382971393091	-0.00094970703125	0.556671142578125
229	0.55908203125	240.40737139303	-0.0009454345703125	0.559112548828125
230	0.5615234375	240.431771392968	-0.00095306396484375	0.561614990234375
231	0.56396484375	240.456171392907	-0.00093353271484375	0.56402587890625
232	0.56640625	240.480571392845	-0.00095947265625	0.566497802734375
233	0.56884765625	240.504971392783	-0.000926513671875	0.56890869140625
234	0.5712890625	240.529371392722	-0.00095062255859375	0.57135009765625
235	0.57373046875	240.55377139266	-0.00092376708984375	0.57379150390625
236	0.576171875	240.578171392599	-0.00093994140625	0.576202392578125
237	0.57861328125	240.602571392537	-0.00093505859375	0.57867431640625
238	0.5810546875	240.626971392475	-0.0009259033203125	0.581085205078125
239	0.58349609375	240.651371392414	-0.0009393310546875	0.58355712890625
240	0.5859375	240.675771392352	-0.00091522216796875	0.5859375
241	0.58837890625	240.70017139229	-0.00094268798828125	0.58837890625
242	0.5908203125	240.724571392229	-0.00090911865234375	0.590850830078125
243	0.59326171875	240.748971392167	-0.0009307861328125	0.59326171875
244	0.595703125	240.773371392106	-0.0009075927734375	0.59576416015625
245	0.59814453125	240.797771392044	-0.00091827392578125	0.59820556640625
246	0.6005859375	240.822171391982	-0.00091796875	0.60064697265625
247	0.60302734375	240.846571391921	-0.0009027099609375	0.603057861328125
248	0.60546875	240.870971391859	-0.00091766357421875	0.60552978515625
249	0.60791015625	240.895371391798	-0.0008905029296875	0.607940673828125
250	0.6103515625	240.919771391736	-0.00091827392578125	0.61041259765625
251	0.61279296875	240.944171391674	-0.00088409423828125	0.612823486328125
252	0.615234375	240.968571391613	-0.00090179443359375	0.61517333984375
253	0.61767578125	240.992971391551	-0.00088409423828125	0.61767578125
254	0.6201171875	241.01737139149	-0.00088775634765625	0.6201171875
255	0.62255859375	241.041771391428	-0.00089141845703125	0.622589111328125
256	0.625	241.066171391366	-0.00087188720703125	0.625
257	0.62744140625	241.090571391305	-0.00088836669921875	0.627471923828125
258	0.6298828125	241.114971391243	-0.00085693359375	0.6298828125
259	0.63232421875	241.139371391182	-0.0008837890625	0.632415771484375
260	0.634765625	241.16377139112	-0.00085235595703125	0.634796142578125
261	0.63720703125	241.188171391058	-0.00086639404296875	0.637176513671875
262	0.6396484375	241.212571390997	-0.0008526611328125	0.6396484375
263	0.64208984375	241.236971390935	-0.00085113525390625	0.642059326171875
264	0.64453125	241.261371390874	-0.000859375	0.64453125
265	0.64697265625	241.285771390812	-0.00083526611328125	0.6468505859375
266	0.6494140625	241.31017139075	-0.00085357666015625	0.649444580078125
267	0.65185546875	241.334571390689	-0.0008221435546875	0.65185546875
268	0.654296875	241.358971390627	-0.00084808349609375	0.654327392578125
269	0.65673828125	241.383371390566	-0.0008203125	0.65667724609375
270	0.6591796875	241.407771390504	-0.000828857421875	0.659149169921875
271	0.66162109375	241.432171390442	-0.00082000732421875	0.66162109375
272	0.6640625	241.456571390381	-0.0008123779296875	0.6640625
273	0.66650390625	241.480971390319	-0.0008251953125	0.66644287109375
274	0.6689453125	241.505371390258	-0.000797119140625	0.668914794921875
275	0.67138671875	241.529771390196	-0.00081787109375	0.67144775390625
276	0.673828125	241.554171390134	-0.00078521728515625	0.673797607421875
277	0.67626953125	241.578571390073	-0.00080810546875	0.676239013671875
278	0.6787109375	241.602971390011	-0.00078369140625	0.678619384765625
279	0.68115234375	241.62737138995	-0.00078643798828125	0.68115234375
280	0.68359375	241.651771389888	-0.00078155517578125	0.683563232421875
281	0.68603515625	241.676171389826	-0.000767822265625	0.686004638671875
282	0.6884765625	241.700571389765	-0.00078125	0.68841552734375
283	0.69091796875	241.724971389703	-0.00074951171875	0.69085693359375
284	0.693359375	241.749371389642	-0.00076873779296875	0.69329833984375
285	0.69580078125	241.77377138958	-0.00073516845703125	0.69573974609375
286	0.6982421875	241.798171389518	-0.0007525634765625	0.698150634765625
287	0.70068359375	241.822571389457	-0.000732421875	0.70062255859375
288	0.703125	241.846971389395	-0.000728759765625	0.7030029296875
289	0.70556640625	241.871371389333	-0.00072845458984375	0.70550537109375
290	0.7080078125	241.895771389272	-0.00070953369140625	0.7078857421875
291	0.71044921875	241.92017138921	-0.00072479248046875	0.7103271484375
292	0.712890625	241.944571389149	-0.00069000244140625	0.712738037109375
293	0.71533203125	241.968971389087	-0.00070770263671875	0.71527099609375
294	0.7177734375	241.993371389025	-0.000675048828125	0.7176513671875
295	0.72021484375	242.017771388964	-0.0006878662109375	0.720123291015625
296	0.72265625	242.042171388902	-0.00067291259765625	0.7225341796875
297	0.72509765625	242.066571388841	-0.00066314697265625	0.724945068359375
298	0.7275390625	242.090971388779	-0.0006671142578125	0.7274169921875
299	0.72998046875	242.115371388717	-0.0006439208984375	0.7298583984375
300	0.732421875	242.139771388656	-0.0006610107421875	0.732330322265625
301	0.73486328125	242.164171388594	-0.00062652587890625	0.7347412109375
302	0.7373046875	242.188571388533	-0.0006427001953125	0.7371826171875
303	0.73974609375	242.212971388471	-0.000614013671875	0.7396240234375
304	0.7421875	242.237371388409	-0.0006219482421875	0.742034912109375
305	0.74462890625	242.261771388348	-0.0006109619140625	0.744537353515625
306	0.7470703125	242.286171388286	-0.00059722900390625	0.7469482421875
307	0.74951171875	242.310571388225	-0.0006011962890625	0.749420166015625
308	0.751953125	242.334971388163	-0.00057281494140625	0.7513427734375
309	0.75439453125	242.359371388101	-0.00059051513671875	0.75408935546875
310	0.7568359375	242.38377138804	-0.00055450439453125	0.7562255859375
311	0.75927734375	242.408171387978	-0.00056671142578125	0.7586669921875
312	0.76171875	242.432571387917	-0.00053924560546875	0.7611083984375
313	0.76416015625	242.456971387855	-0.00054107666015625	0.7635498046875
314	0.7666015625	242.481371387793	-0.00053131103515625	0.76568603515625
315	0.76904296875	242.505771387732	-0.00051055908203125	0.7684326171875
316	0.771484375	242.53017138767	-0.00051513671875	0.770263671875
317	0.77392578125	242.554571387609	-0.0004827880859375	0.7733154296875
318	0.7763671875	242.578971387547	-0.00049835205078125	0.77545166015625
319	0.77880859375	242.603371387485	-0.000462890625	0.77789306640625
320	0.78125	242.627771387424	-0.00046826171875	0.7806396484375
321	0.78369140625	242.652171387362	-0.00044415283203125	0.78277587890625
322	0.7861328125	242.676571387301	-0.00043731689453125	0.78521728515625
323	0.78857421875	242.700971387239	-0.000431304931640625	0.787353515625
324	0.791015625	242.725371387177	-0.00040478515625	0.789794921875
325	0.79345703125	242.749771387116	-0.000409515380859375	0.79254150390625
326	0.7958984375	242.774171387054	-0.00037457275390625	0.7952880859375
327	0.79833984375	242.798571386993	-0.0003853759765625	0.79742431640625
328	0.80078125	242.822971386931	-0.00035107421875	0.79986572265625
329	0.80322265625	242.847371386869	-0.00035064697265625	0.80230712890625
330	0.8056640625	242.871771386808	-0.000329315185546875	0.804443359375
331	0.80810546875	242.896171386746	-0.000317047119140625	0.806884765625
332	0.810546875	242.920571386685	-0.0003128662109375	0.8099365234375
333	0.81298828125	242.944971386623	-0.000283111572265625	0.811767578125
334	0.8154296875	242.969371386561	-0.00028619384765625	0.8148193359375
335	0.81787109375	242.9937713865	-0.00025067138671875	0.816650390625
336	0.8203125	243.018171386438	-0.0002569580078125	0.81939697265625
337	0.82275390625	243.042571386376	-0.000225189208984375	0.82183837890625
338	0.8251953125	243.066971386315	-0.0002188720703125	0.82489013671875
339	0.82763671875	243.091371386253	-0.000199127197265625	0.8270263671875
340	0.830078125	243.115771386192	-0.000181427001953125	0.8294677734375
341	0.83251953125	243.14017138613	-0.00017681884765625	0.83221435546875
342	0.8349609375	243.164571386068	-0.0001439208984375	0.833740234375
343	0.83740234375	243.188971386007	-0.0001444091796875	0.836181640625
344	0.83984375	243.213371385945	-0.000106353759765625	0.838623046875
345	0.84228515625	243.237771385884	-0.000107391357421875	0.84197998046875
346	0.8447265625	243.262171385822	-7.550048828125E-05	0.8441162109375
347	0.84716796875	243.28657138576	-6.2896728515625E-05	0.845947265625
348	0.849609375	243.310971385699	-4.3701171875E-05	0.84869384765625
349	0.85205078125	243.335371385637	-1.87225341796875E-05	0.85113525390625
350	0.8544921875	243.359771385576	-1.22467041015625E-05	0.8538818359375
351	0.85693359375	243.384171385514	2.47528076171875E-05	0.85601806640625
352	0.859375	243.408571385452	2.80609130859375E-05	0.8587646484375
353	0.86181640625	243.432971385391	6.6802978515625E-05	0.86090087890625
354	0.8642578125	243.457371385329	7.220458984375E-05	0.863037109375
355	0.86669921875	243.481771385268	0.000103179931640625	0.86578369140625
356	0.869140625	243.506171385206	0.00012274169921875	0.86822509765625
357	0.87158203125	243.530571385144	0.000141845703125	0.87066650390625
358	0.8740234375	243.554971385083	0.000171173095703125	0.87249755859375
359	0.87646484375	243.579371385021	0.00018035888671875	0.875244140625
360	0.87890625	243.60377138496	0.000219024658203125	0.87738037109375
361	0.88134765625	243.628171384898	0.000228179931640625	0.88043212890625
362	0.8837890625	243.652571384836	0.0002666015625	0.88287353515625
363	0.88623046875	243.676971384775	0.000277740478515625	0.8856201171875
364	0.888671875	243.701371384713	0.00030694580078125	0.88836669921875
365	0.89111328125	243.725771384652	0.000332366943359375	0.89019775390625
366	0.8935546875	243.75017138459	0.000353912353515625	0.8929443359375
367	0.89599609375	243.774571384528	0.000387115478515625	0.89508056640625
368	0.8984375	243.798971384467	0.0003997802734375	0.897216796875
369	0.90087890625	243.823371384405	0.00044000244140625	0.89996337890625
370	0.9033203125	243.847771384344	0.000454742431640625	0.90240478515625
371	0.90576171875	243.872171384282	0.0004925537109375	0.9051513671875
372	0.908203125	243.89657138422	0.00051300048828125	0.906982421875
373	0.91064453125	243.920971384159	0.00054229736328125	0.90972900390625
374	0.9130859375	243.945371384097	0.000572509765625	0.91217041015625
375	0.91552734375	243.969771384036	0.00059722900390625	0.91461181640625
376	0.91796875	243.994171383974	0.00063507080078125	0.916748046875
377	0.92041015625	244.018571383912	0.00065216064453125	0.91949462890625
378	0.9228515625	244.042971383851	0.000694580078125	0.9222412109375
379	0.92529296875	244.067371383789	0.00071563720703125	0.92437744140625
380	0.927734375	244.091771383728	0.000755615234375	0.9271240234375
381	0.93017578125	244.116171383666	0.00078125	0.9295654296875
382	0.9326171875	244.140571383604	0.000811767578125	0.9320068359375
383	0.93505859375	244.164971383543	0.00084747314453125	0.93414306640625
384	0.9375	244.189371383481	0.00087432861328125	0.936279296875
385	0.93994140625	244.213771383419	0.00091705322265625	0.93902587890625
386	0.9423828125	244.238171383358	0.00093994140625	0.94146728515625
387	0.94482421875	244.262571383296	0.00098388671875	0.9442138671875
388	0.947265625	244.286971383235	0.0010113525390625	0.94635009765625
389	0.94970703125	244.311371383173	0.00105194091796875	0.94879150390625
390	0.9521484375	244.335771383111	0.0010845947265625	0.95123291015625
391	0.95458984375	244.36017138305	0.00111785888671875	0.95367431640625
392	0.95703125	244.384571382988	0.00115814208984375	0.95611572265625
393	0.95947265625	244.408971382927	0.001190185546875	0.9588623046875
394	0.9619140625	244.433371382865	0.00123443603515625	0.96099853515625
395	0.96435546875	244.457771382803	0.00126373291015625	0.963134765625
396	0.966796875	244.482171382742	0.0013092041015625	0.965576171875
397	0.96923828125	244.50657138268	0.00134246826171875	0.96832275390625
398	0.9716796875	244.530971382619	0.00138519287109375	0.97076416015625
399	0.97412109375	244.555371382557	0.00142181396484375	0.9735107421875
400	0.9765625	244.579771382495	0.001461181640625	0.9759521484375
401	0.97900390625	244.604171382434	0.001505126953125	0.977783203125
402	0.9814453125	244.628571382372	0.0015411376953125	0.9808349609375
403	0.98388671875	244.652971382311	0.001588134765625	0.98297119140625
404	0.986328125	244.677371382249	0.0016217041015625	0.9857177734375
405	0.98876953125	244.701771382187	0.00166900634765625	0.987548828125
406	0.9912109375	244.726171382126	0.00170928955078125	0.99029541015625
407	0.99365234375	244.750571382064	0.00175384521484375	0.99273681640625
408	0.99609375	244.774971382003	0.0017974853515625	0.99578857421875
409	0.99853515625	244.799371381941	0.00183929443359375	0.9979248046875
410	1.0009765625	244.823771381879	0.00188690185546875	1.0003662109375
411	1.00341796875	244.848171381818	0.00192901611328125	1.002197265625
412	1.005859375	244.872571381756	0.00197967529296875	1.0052490234375
413	1.00830078125	244.896971381695	0.00202056884765625	1.0076904296875
414	1.0107421875	244.921371381633	0.0020703125	1.00982666015625
415	1.01318359375	244.945771381571	0.00211517333984375	1.01287841796875
416	1.015625	244.97017138151	0.0021636962890625	1.01470947265625
417	1.01806640625	244.994571381448	0.00221282958984375	1.01715087890625
418	1.0205078125	245.018971381387	0.0022589111328125	1.019287109375
419	1.02294921875	245.043371381325	0.0023101806640625	1.0223388671875
420	1.025390625	245.067771381263	0.00235687255859375	1.024169921875
421	1.02783203125	245.092171381202	0.002410888671875	1.026611328125
422	1.0302734375	245.11657138114	0.00245819091796875	1.0296630859375
423	1.03271484375	245.140971381079	0.00251007080078125	1.03179931640625
424	1.03515625	245.165371381017	0.00256011962890625	1.03424072265625
425	1.03759765625	245.189771380955	0.00261199951171875	1.036376953125
426	1.0400390625	245.214171380894	0.0026654052734375	1.038818359375
427	1.04248046875	245.238571380832	0.00271636962890625	1.0418701171875
428	1.044921875	245.262971380771	0.00277069091796875	1.04339599609375
429	1.04736328125	245.287371380709	0.00282196044921875	1.04644775390625
430	1.0498046875	245.311771380647	0.00287933349609375	1.04888916015625
431	1.05224609375	245.336171380586	0.0029315185546875	1.051025390625
432	1.0546875	245.360571380524	0.00298675537109375	1.0540771484375
433	1.05712890625	245.384971380463	0.0030413818359375	1.055908203125
434	1.0595703125	245.409371380401	0.00309783935546875	1.05926513671875
435	1.06201171875	245.433771380339	0.00315399169921875	1.06109619140625
436	1.064453125	245.458171380278	0.00320953369140625	1.06292724609375
437	1.06689453125	245.482571380216	0.00326751708984375	1.06536865234375
438	1.0693359375	245.506971380154	0.00332366943359375	1.06842041015625
439	1.07177734375	245.531371380093	0.00338287353515625	1.070556640625
440	1.07421875	245.555771380031	0.00343902587890625	1.072998046875
441	1.07666015625	245.58017137997	0.003497314453125	1.075439453125
442	1.0791015625	245.604571379908	0.0035546875	1.07757568359375
443	1.08154296875	245.628971379846	0.0036126708984375	1.080322265625
444	1.083984375	245.653371379785	0.003670654296875	1.082763671875
445	1.08642578125	245.677771379723	0.00372802734375	1.08551025390625
446	1.0888671875	245.702171379662	0.00378509521484375	1.08795166015625
447	1.09130859375	245.7265713796	0.003841552734375	1.09039306640625
448	1.09375	245.750971379538	0.00389801025390625	1.09283447265625
449	1.09619140625	245.775371379477	0.00395263671875	1.09527587890625
450	1.0986328125	245.799771379415	0.004007568359375	1.09771728515625
451	1.10107421875	245.824171379354	0.0040606689453125	1.099853515625
452	1.103515625	245.848571379292	0.0041131591796875	1.10198974609375
453	1.10595703125	245.87297137923	0.00416412353515625	1.10504150390625
454	1.1083984375	245.897371379169	0.0042138671875	1.107177734375
455	1.11083984375	245.921771379107	0.00426116943359375	1.109619140625
456	1.11328125	245.946171379046	0.0043072509765625	1.11236572265625
457	1.11572265625	245.970571378984	0.00435302734375	1.114501953125
458	1.1181640625	245.994971378922	0.00439605712890625	1.1175537109375
459	1.12060546875	246.019371378861	0.0044378662109375	1.119384765625
460	1.123046875	246.043771378799	0.00447723388671875	1.121826171875
461	1.12548828125	246.068171378738	0.00451629638671875	1.12518310546875
462	1.1279296875	246.092571378676	0.00455322265625	1.12640380859375
463	1.13037109375	246.116971378614	0.0045892333984375	1.12945556640625
464	1.1328125	246.141371378553	0.00462310791015625	1.131591796875
465	1.13525390625	246.165771378491	0.00465667724609375	1.134033203125
466	1.1376953125	246.19017137843	0.00468902587890625	1.136474609375
467	1.14013671875	246.214571378368	0.0047198486328125	1.13922119140625
468	1.142578125	246.238971378306	0.00475006103515625	1.1419677734375
469	1.14501953125	246.263371378245	0.00477813720703125	1.143798828125
470	1.1474609375	246.287771378183	0.00480682373046875	1.1468505859375
471	1.14990234375	246.312171378122	0.0048333740234375	1.148681640625
472	1.15234375	246.33657137806	0.00485992431640625	1.15142822265625
473	1.15478515625	246.360971377998	0.00488494873046875	1.153564453125
474	1.1572265625	246.385371377937	0.00490966796875	1.156005859375
475	1.15966796875	246.409771377875	0.00493377685546875	1.1590576171875
476	1.162109375	246.434171377814	0.004957275390625	1.1614990234375
477	1.16455078125	246.458571377752	0.0049798583984375	1.1639404296875
478	1.1669921875	246.48297137769	0.00500152587890625	1.16607666015625
479	1.16943359375	246.507371377629	0.00502349853515625	1.16851806640625
480	1.171875	246.531771377567	0.0050445556640625	1.17095947265625
481	1.17431640625	246.556171377506	0.0050653076171875	1.173095703125
482	1.1767578125	246.580571377444	0.0050848388671875	1.175537109375
483	1.17919921875	246.604971377382	0.0051043701171875	1.17828369140625
484	1.181640625	246.629371377321	0.0051239013671875	1.180419921875
485	1.18408203125	246.653771377259	0.00514251708984375	1.18316650390625
486	1.1865234375	246.678171377197	0.00516082763671875	1.185302734375
487	1.18896484375	246.702571377136	0.00517852783203125	1.1883544921875
488	1.19140625	246.726971377074	0.005196533203125	1.19049072265625
489	1.19384765625	246.751371377013	0.005213623046875	1.192626953125
490	1.1962890625	246.775771376951	0.005230712890625	1.195068359375
491	1.19873046875	246.800171376889	0.00524688720703125	1.197509765625
492	1.201171875	246.824571376828	0.0052630615234375	1.19964599609375
493	1.19873046875	246.848971376766	0.005244140625	1.19781494140625
494	1.1962890625	246.873371376705	0.005224609375	1.195068359375
495	1.19384765625	246.897771376643	0.005205078125	1.192626953125
496	1.19140625	246.922171376581	0.00518402099609375	1.190185546875
497	1.18896484375	246.94657137652	0.00516357421875	1.18804931640625
498	1.1865234375	246.970971376458	0.0051422119140625	1.18621826171875
499	1.18408203125	246.995371376397	0.00512054443359375	1.18316650390625
500	1.181640625	247.019771376335	0.00509796142578125	1.18011474609375
501	1.17919921875	247.044171376273	0.0050750732421875	1.177978515625
502	1.1767578125	247.068571376212	0.0050518798828125	1.175537109375
503	1.17431640625	247.09297137615	0.0050274658203125	1.173095703125
504	1.171875	247.117371376089	0.00500244140625	1.17034912109375
505	1.16943359375	247.141771376027	0.00497650146484375	1.168212890625
506	1.1669921875	247.166171375965	0.00495025634765625	1.165771484375
507	1.16455078125	247.190571375904	0.004923095703125	1.16363525390625
508	1.162109375	247.214971375842	0.00489501953125	1.16119384765625
509	1.15966796875	247.239371375781	0.00486572265625	1.158447265625
510	1.1572265625	247.263771375719	0.004835205078125	1.15631103515625
511	1.15478515625	247.288171375657	0.00480438232421875	1.15386962890625
512	1.15234375	247.312571375596	0.00477203369140625	1.151123046875
513	1.14990234375	247.336971375534	0.00473846435546875	1.148681640625
514	1.1474609375	247.361371375473	0.00470306396484375	1.14593505859375
515	1.14501953125	247.385771375411	0.00466644287109375	1.143798828125
516	1.142578125	247.410171375349	0.00462890625	1.1419677734375
517	1.14013671875	247.434571375288	0.00458892822265625	1.138916015625
518	1.1376953125	247.458971375226	0.004547119140625	1.13616943359375
519	1.13525390625	247.483371375165	0.00450408935546875	1.134033203125
520	1.1328125	247.507771375103	0.0044586181640625	1.131591796875
521	1.13037109375	247.532171375041	0.00441192626953125	1.12945556640625
522	1.1279296875	247.55657137498	0.0043621826171875	1.126708984375
523	1.12548828125	247.580971374918	0.0043109130859375	1.124267578125
524	1.123046875	247.605371374857	0.004256591796875	1.121826171875
525	1.12060546875	247.629771374795	0.0042022705078125	1.11968994140625
526	1.1181640625	247.654171374733	0.00414398193359375	1.1175537109375
527	1.11572265625	247.678571374672	0.0040838623046875	1.11480712890625
528	1.11328125	247.70297137461	0.0040228271484375	1.11236572265625
529	1.11083984375	247.727371374549	0.003958740234375	1.109619140625
530	1.1083984375	247.751771374487	0.00389678955078125	1.107177734375
531	1.10595703125	247.776171374425	0.003829345703125	1.10504150390625
532	1.103515625	247.800571374364	0.0037652587890625	1.10260009765625
533	1.10107421875	247.824971374302	0.003697509765625	1.099853515625
534	1.0986328125	247.84937137424	0.0036328125	1.09710693359375
535	1.09619140625	247.873771374179	0.00356475830078125	1.09527587890625
536	1.09375	247.898171374117	0.00349639892578125	1.09283447265625
537	1.09130859375	247.922571374056	0.00343109130859375	1.090087890625
538	1.0888671875	247.946971373994	0.00336181640625	1.08795166015625
539	1.08642578125	247.971371373932	0.003299560546875	1.08551025390625
540	1.083984375	247.995771373871	0.0032293701171875	1.08306884765625
541	1.08154296875	248.020171373809	0.0031671142578125	1.080322265625
542	1.0791015625	248.044571373748	0.003099365234375	1.07818603515625
543	1.07666015625	248.068971373686	0.003037109375	1.0760498046875
544	1.07421875	248.093371373624	0.00297271728515625	1.07330322265625
545	1.07177734375	248.117771373563	0.00290740966796875	1.07086181640625
546	1.0693359375	248.142171373501	0.00284759521484375	1.068115234375
547	1.06689453125	248.16657137344	0.002781982421875	1.065673828125
548	1.064453125	248.190971373378	0.00272613525390625	1.063232421875
549	1.06201171875	248.215371373316	0.00266021728515625	1.06109619140625
550	1.0595703125	248.239771373255	0.00260406494140625	1.05926513671875
551	1.05712890625	248.264171373193	0.00254180908203125	1.0565185546875
552	1.0546875	248.288571373132	0.002484130859375	1.05377197265625
553	1.05224609375	248.31297137307	0.00242767333984375	1.05194091796875
554	1.0498046875	248.337371373008	0.00236572265625	1.0491943359375
555	1.04736328125	248.361771372947	0.0023138427734375	1.04644775390625
556	1.044921875	248.386171372885	0.00225250244140625	1.043701171875
557	1.04248046875	248.410571372824	0.00220428466796875	1.0418701171875
558	1.0400390625	248.434971372762	0.002142333984375	1.03912353515625
559	1.03759765625	248.4593713727	0.00209259033203125	1.03607177734375
560	1.03515625	248.483771372639	0.00203704833984375	1.03424072265625
561	1.03271484375	248.508171372577	0.00198455810546875	1.03179931640625
562	1.0302734375	248.532571372516	0.00193572998046875	1.029052734375
563	1.02783203125	248.556971372454	0.00187744140625	1.026611328125
564	1.025390625	248.581371372392	0.0018353271484375	1.0247802734375
565	1.02294921875	248.605771372331	0.00177734375	1.021728515625
566	1.0205078125	248.630171372269	0.00173675537109375	1.01959228515625
567	1.01806640625	248.654571372208	0.001680908203125	1.01715087890625
568	1.015625	248.678971372146	0.00163665771484375	1.0150146484375
569	1.01318359375	248.703371372084	0.0015887451171875	1.0125732421875
570	1.0107421875	248.727771372023	0.00154052734375	1.00982666015625
571	1.00830078125	248.752171371961	0.00149932861328125	1.0076904296875
572	1.005859375	248.7765713719	0.0014447021484375	1.00555419921875
573	1.00341796875	248.800971371838	0.00141082763671875	1.0028076171875
574	1.0009765625	248.825371371776	0.00135711669921875	1.0003662109375
575	0.99853515625	248.849771371715	0.0013250732421875	0.99761962890625
576	0.99609375	248.874171371653	0.00127471923828125	0.9954833984375
577	0.99365234375	248.898571371592	0.0012359619140625	0.99273681640625
578	0.9912109375	248.92297137153	0.00119598388671875	0.989990234375
579	0.98876953125	248.947371371468	0.00115264892578125	0.98785400390625
580	0.986328125	248.971771371407	0.00112060546875	0.98541259765625
581	0.98388671875	248.996171371345	0.0010693359375	0.98297119140625
582	0.9814453125	249.020571371283	0.0010443115234375	0.98052978515625
583	0.97900390625	249.044971371222	0.0009954833984375	0.97808837890625
584	0.9765625	249.06937137116	0.00096954345703125	0.97564697265625
585	0.97412109375	249.093771371099	0.000926513671875	0.9735107421875
586	0.9716796875	249.118171371037	0.0008917236328125	0.97076416015625
587	0.96923828125	249.142571370975	0.000860595703125	0.96893310546875
588	0.966796875	249.166971370914	0.00081878662109375	0.96588134765625
589	0.96435546875	249.191371370852	0.0007965087890625	0.963134765625
590	0.9619140625	249.215771370791	0.000748291015625	0.960693359375
591	0.95947265625	249.240171370729	0.000731201171875	0.9588623046875
592	0.95703125	249.264571370667	0.00068695068359375	0.955810546875
593	0.95458984375	249.288971370606	0.00066436767578125	0.9539794921875
594	0.9521484375	249.313371370544	0.000628662109375	0.9515380859375
595	0.94970703125	249.337771370483	0.000596923828125	0.94879150390625
596	0.947265625	249.362171370421	0.0005755615234375	0.946044921875
597	0.94482421875	249.386571370359	0.00053466796875	0.943603515625
598	0.9423828125	249.410971370298	0.000521240234375	0.94146728515625
599	0.93994140625	249.435371370236	0.000474945068359375	0.938720703125
600	0.9375	249.459771370175	0.00046337890625	0.93658447265625
601	0.93505859375	249.484171370113	0.000425018310546875	0.9344482421875
602	0.9326171875	249.508571370051	0.000405792236328125	0.93109130859375
603	0.93017578125	249.53297136999	0.000376739501953125	0.928955078125
604	0.927734375	249.557371369928	0.0003455810546875	0.92681884765625
605	0.92529296875	249.581771369867	0.00033160400390625	0.92437744140625
606	0.9228515625	249.606171369805	0.000292510986328125	0.9222412109375
607	0.92041015625	249.630571369743	0.000286956787109375	0.91949462890625
608	0.91796875	249.654971369682	0.0002442626953125	0.9173583984375
609	0.91552734375	249.67937136962	0.00023870849609375	0.91461181640625
610	0.9130859375	249.703771369559	0.000206329345703125	0.9124755859375
611	0.91064453125	249.728171369497	0.0001885986328125	0.90972900390625
612	0.908203125	249.752571369435	0.000167449951171875	0.90728759765625
613	0.90576171875	249.776971369374	0.0001365966796875	0.9051513671875
614	0.9033203125	249.801371369312	0.000132080078125	0.90301513671875
615	0.90087890625	249.825771369251	9.381103515625E-05	0.89996337890625
616	0.8984375	249.850171369189	9.5184326171875E-05	0.89752197265625
617	0.89599609375	249.874571369127	5.615234375E-05	0.89508056640625
618	0.8935546875	249.898971369066	5.1971435546875E-05	0.89263916015625
619	0.89111328125	249.923371369004	2.6153564453125E-05	0.889892578125
620	0.888671875	249.947771368943	1.07330322265625E-05	0.8880615234375
621	0.88623046875	249.972171368881	-3.594970703125E-06	0.885009765625
622	0.8837890625	249.996571368819	-3.594970703125E-05	0.88348388671875
623	0.88134765625	250.020971368758	-3.369140625E-05	0.880126953125
624	0.87890625	250.045371368696	-7.073974609375E-05	0.87799072265625
625	0.87646484375	250.069771368635	-6.53076171875E-05	0.875244140625
626	0.8740234375	250.094171368573	-0.00010150146484375	0.87310791015625
627	0.87158203125	250.118571368511	-0.00010601806640625	0.87066650390625
628	0.869140625	250.14297136845	-0.00012646484375	0.867919921875
629	0.86669921875	250.167371368388	-0.00014410400390625	0.86578369140625
630	0.8642578125	250.191771368326	-0.000151153564453125	0.86334228515625
631	0.86181640625	250.216171368265	-0.000185302734375	0.860595703125
632	0.859375	250.240571368203	-0.0001776123046875	0.85845947265625
633	0.85693359375	250.264971368142	-0.00021502685546875	0.8563232421875
634	0.8544921875	250.28937136808	-0.00020635986328125	0.8538818359375
635	0.85205078125	250.313771368018	-0.000239898681640625	0.85113525390625
636	0.849609375	250.338171367957	-0.00024493408203125	0.84869384765625
637	0.84716796875	250.362571367895	-0.000258575439453125	0.84625244140625
638	0.8447265625	250.386971367834	-0.00027789306640625	0.8441162109375
639	0.84228515625	250.411371367772	-0.00027734375	0.84136962890625
640	0.83984375	250.43577136771	-0.00031146240234375	0.838623046875
641	0.83740234375	250.460171367649	-0.00030029296875	0.83648681640625
642	0.8349609375	250.484571367587	-0.00033465576171875	0.83404541015625
643	0.83251953125	250.508971367526	-0.000324920654296875	0.83160400390625
644	0.830078125	250.533371367464	-0.000352569580078125	0.82916259765625
645	0.82763671875	250.557771367402	-0.000358978271484375	0.8270263671875
646	0.8251953125	250.582171367341	-0.000365966796875	0.823974609375
647	0.82275390625	250.606571367279	-0.000387786865234375	0.82183837890625
648	0.8203125	250.630971367218	-0.00038177490234375	0.819091796875
649	0.81787109375	250.655371367156	-0.000416656494140625	0.8172607421875
650	0.8154296875	250.679771367094	-0.0004013671875	0.8148193359375
651	0.81298828125	250.704171367033	-0.00043218994140625	0.81268310546875
652	0.810546875	250.728571366971	-0.00042413330078125	0.81024169921875
653	0.80810546875	250.75297136691	-0.000446502685546875	0.80718994140625
654	0.8056640625	250.777371366848	-0.000457427978515625	0.804443359375
655	0.80322265625	250.801771366786	-0.0004578857421875	0.802001953125
656	0.80078125	250.826171366725	-0.000481964111328125	0.8001708984375
657	0.79833984375	250.850571366663	-0.00047119140625	0.79742431640625
658	0.7958984375	250.874971366602	-0.0005078125	0.7952880859375
659	0.79345703125	250.89937136654	-0.0004901123046875	0.7928466796875
660	0.791015625	250.923771366478	-0.000518798828125	0.789794921875
661	0.78857421875	250.948171366417	-0.0005120849609375	0.787353515625
662	0.7861328125	250.972571366355	-0.00053009033203125	0.7855224609375
663	0.78369140625	250.996971366294	-0.00054290771484375	0.7830810546875
664	0.78125	251.021371366232	-0.00053985595703125	0.78033447265625
665	0.77880859375	251.04577136617	-0.00056549072265625	0.7781982421875
666	0.7763671875	251.070171366109	-0.00055084228515625	0.7757568359375
667	0.77392578125	251.094571366047	-0.00058746337890625	0.772705078125
668	0.771484375	251.118971365986	-0.00057037353515625	0.7708740234375
669	0.76904296875	251.143371365924	-0.000595703125	0.76873779296875
670	0.7666015625	251.167771365862	-0.00059326171875	0.76568603515625
671	0.76416015625	251.192171365801	-0.000604248046875	0.762939453125
672	0.76171875	251.216571365739	-0.00062103271484375	0.76080322265625
673	0.75927734375	251.240971365678	-0.0006109619140625	0.7586669921875
674	0.7568359375	251.265371365616	-0.00063873291015625	0.7562255859375
675	0.75439453125	251.289771365554	-0.00062103271484375	0.75347900390625
676	0.751953125	251.314171365493	-0.00065460205078125	0.7513427734375
677	0.74951171875	251.338571365431	-0.0006378173828125	0.749359130859375
678	0.7470703125	251.36297136537	-0.000657958984375	0.7469482421875
679	0.74462890625	251.387371365308	-0.0006591796875	0.744537353515625
680	0.7421875	251.411771365246	-0.0006634521484375	0.742034912109375
681	0.73974609375	251.436171365185	-0.0006842041015625	0.7396240234375
682	0.7373046875	251.460571365123	-0.00066864013671875	0.737152099609375
683	0.73486328125	251.484971365061	-0.0006982421875	0.734771728515625
684	0.732421875	251.509371365	-0.00067596435546875	0.732269287109375
685	0.72998046875	251.533771364938	-0.00070953369140625	0.729888916015625
686	0.7275390625	251.558171364877	-0.00069580078125	0.727447509765625
687	0.72509765625	251.582571364815	-0.000711669921875	0.725006103515625
688	0.72265625	251.606971364753	-0.00071624755859375	0.7225341796875
689	0.72021484375	251.631371364692	-0.000716552734375	0.720123291015625
690	0.7177734375	251.65577136463	-0.000740966796875	0.717742919921875
691	0.71533203125	251.680171364569	-0.00072174072265625	0.715240478515625
692	0.712890625	251.704571364507	-0.00075347900390625	0.71282958984375
693	0.71044921875	251.728971364445	-0.0007305908203125	0.710418701171875
694	0.7080078125	251.753371364384	-0.00076202392578125	0.707916259765625
695	0.70556640625	251.777771364322	-0.00075286865234375	0.7054443359375
696	0.703125	251.802171364261	-0.00076202392578125	0.703033447265625
697	0.70068359375	251.826571364199	-0.000772705078125	0.70062255859375
698	0.6982421875	251.850971364137	-0.0007666015625	0.698150634765625
699	0.69580078125	251.875371364076	-0.00079498291015625	0.69573974609375
700	0.693359375	251.899771364014	-0.00077239990234375	0.693359375
701	0.69091796875	251.924171363953	-0.000804443359375	0.69091796875
702	0.6884765625	251.948571363891	-0.000782470703125	0.688385009765625
703	0.68603515625	251.972971363829	-0.0008087158203125	0.68603515625
704	0.68359375	251.997371363768	-0.00080474853515625	0.68353271484375
705	0.68115234375	252.021771363706	-0.0008087158203125	0.68109130859375
706	0.6787109375	252.046171363645	-0.000821533203125	0.67864990234375
707	0.67626953125	252.070571363583	-0.000809326171875	0.676239013671875
708	0.673828125	252.094971363521	-0.0008392333984375	0.673828125
709	0.67138671875	252.11937136346	-0.0008148193359375	0.67138671875
710	0.6689453125	252.143771363398	-0.00084564208984375	0.6689453125
711	0.66650390625	252.168171363337	-0.0008233642578125	0.666473388671875
712	0.6640625	252.192571363275	-0.000845947265625	0.6640625
713	0.66162109375	252.216971363213	-0.0008453369140625	0.661590576171875
714	0.6591796875	252.241371363152	-0.00084320068359375	0.65911865234375
715	0.65673828125	252.26577136309	-0.000860595703125	0.65673828125
716	0.654296875	252.290171363029	-0.00084381103515625	0.654266357421875
717	0.65185546875	252.314571362967	-0.000875244140625	0.65185546875
718	0.6494140625	252.338971362905	-0.00084808349609375	0.649322509765625
719	0.64697265625	252.363371362844	-0.00087677001953125	0.64697265625
720	0.64453125	252.387771362782	-0.00085906982421875	0.64453125
721	0.64208984375	252.412171362721	-0.0008770751953125	0.642120361328125
722	0.6396484375	252.436571362659	-0.000880126953125	0.639678955078125
723	0.63720703125	252.460971362597	-0.00087310791015625	0.63714599609375
724	0.634765625	252.485371362536	-0.0008935546875	0.63482666015625
725	0.63232421875	252.509771362474	-0.0008734130859375	0.632354736328125
726	0.6298828125	252.534171362413	-0.000906982421875	0.6298828125
727	0.62744140625	252.558571362351	-0.000880126953125	0.62744140625
728	0.625	252.582971362289	-0.000904541015625	0.625
729	0.62255859375	252.607371362228	-0.0008917236328125	0.622589111328125
730	0.6201171875	252.631771362166	-0.00090362548828125	0.620147705078125
731	0.61767578125	252.656171362104	-0.0009124755859375	0.61773681640625
732	0.615234375	252.680571362043	-0.0009002685546875	0.615264892578125
733	0.61279296875	252.704971361981	-0.0009246826171875	0.612823486328125
734	0.6103515625	252.72937136192	-0.0009002685546875	0.610382080078125
735	0.60791015625	252.753771361858	-0.0009344482421875	0.607940673828125
736	0.60546875	252.778171361796	-0.00090972900390625	0.605499267578125
737	0.60302734375	252.802571361735	-0.00093048095703125	0.603057861328125
738	0.6005859375	252.826971361673	-0.0009222412109375	0.600616455078125
739	0.59814453125	252.851371361612	-0.00092742919921875	0.598175048828125
740	0.595703125	252.87577136155	-0.00094207763671875	0.59576416015625
741	0.59326171875	252.900171361488	-0.000924072265625	0.59332275390625
742	0.5908203125	252.924571361427	-0.000950927734375	0.5909423828125
743	0.58837890625	252.948971361365	-0.000924072265625	0.58837890625
744	0.5859375	252.973371361304	-0.000958251953125	0.58599853515625
745	0.58349609375	252.997771361242	-0.0009344482421875	0.58349609375
746	0.5810546875	253.02217136118	-0.0009515380859375	0.581085205078125
747	0.57861328125	253.046571361119	-0.000948486328125	0.57867431640625
748	0.576171875	253.070971361057	-0.0009478759765625	0.57623291015625
749	0.57373046875	253.095371360996	-0.00096588134765625	0.57379150390625
750	0.5712890625	253.119771360934	-0.00094329833984375	0.57135009765625
751	0.56884765625	253.144171360872	-0.0009716796875	0.568939208984375
752	0.56640625	253.168571360811	-0.00094390869140625	0.566497802734375
753	0.56396484375	253.192971360749	-0.0009759521484375	0.56402587890625
754	0.5615234375	253.217371360688	-0.00095733642578125	0.561553955078125
755	0.55908203125	253.241771360626	-0.00096771240234375	0.559112548828125
756	0.556640625	253.266171360564	-0.000970458984375	0.556671142578125
757	0.55419921875	253.290571360503	-0.00096343994140625	0.554290771484375
758	0.5517578125	253.314971360441	-0.000987548828125	0.551849365234375
759	0.54931640625	253.33937136038	-0.00096099853515625	0.549346923828125
760	0.546875	253.363771360318	-0.00098968505859375	0.547027587890625
761	0.54443359375	253.388171360256	-0.00096099853515625	0.54449462890625
762	0.5419921875	253.412571360195	-0.00098907470703125	0.542083740234375
763	0.53955078125	253.436971360133	-0.00097625732421875	0.539642333984375
764	0.537109375	253.461371360072	-0.00098052978515625	0.537139892578125
765	0.53466796875	253.48577136001	-0.00098846435546875	0.534759521484375
766	0.5322265625	253.510171359948	-0.0009765625	0.53228759765625
767	0.52978515625	253.534571359887	-0.00100311279296875	0.529876708984375
768	0.52734375	253.558971359825	-0.00097503662109375	0.52740478515625
769	0.52490234375	253.583371359764	-0.00100433349609375	0.52496337890625
770	0.5224609375	253.607771359702	-0.000977783203125	0.52252197265625
771	0.52001953125	253.63217135964	-0.00100128173828125	0.520111083984375
772	0.517578125	253.656571359579	-0.00099456787109375	0.517669677734375
773	0.51513671875	253.680971359517	-0.00099334716796875	0.515167236328125
774	0.5126953125	253.705371359456	-0.00100555419921875	0.512847900390625
775	0.51025390625	253.729771359394	-0.000987548828125	0.51031494140625
776	0.5078125	253.754171359332	-0.0010174560546875	0.5079345703125
777	0.50537109375	253.778571359271	-0.000987548828125	0.505462646484375
778	0.5029296875	253.802971359209	-0.0010150146484375	0.503021240234375
779	0.50048828125	253.827371359147	-0.0009912109375	0.50054931640625
780	0.498046875	253.851771359086	-0.0010101318359375	0.49810791015625
781	0.49560546875	253.876171359024	-0.00100830078125	0.4957275390625
782	0.4931640625	253.900571358963	-0.00100250244140625	0.493194580078125
783	0.49072265625	253.924971358901	-0.00101959228515625	0.49078369140625
784	0.48828125	253.949371358839	-0.000997314453125	0.488311767578125
785	0.48583984375	253.973771358778	-0.00102996826171875	0.485870361328125
786	0.4833984375	253.998171358716	-0.00099884033203125	0.483489990234375
787	0.48095703125	254.022571358655	-0.00102447509765625	0.481048583984375
788	0.478515625	254.046971358593	-0.0010052490234375	0.478607177734375
789	0.47607421875	254.071371358531	-0.00101837158203125	0.476165771484375
790	0.4736328125	254.09577135847	-0.0010223388671875	0.473785400390625
791	0.47119140625	254.120171358408	-0.0010113525390625	0.4713134765625
792	0.46875	254.144571358347	-0.001031494140625	0.468902587890625
793	0.46630859375	254.168971358285	-0.00100555419921875	0.4664306640625
794	0.4638671875	254.193371358223	-0.00103851318359375	0.4639892578125
795	0.46142578125	254.217771358162	-0.00100860595703125	0.461517333984375
796	0.458984375	254.2421713581	-0.001031494140625	0.459075927734375
797	0.45654296875	254.266571358039	-0.0010162353515625	0.456634521484375
798	0.4541015625	254.290971357977	-0.00102508544921875	0.4542236328125
799	0.45166015625	254.315371357915	-0.00103363037109375	0.451751708984375
800	0.44921875	254.339771357854	-0.00101715087890625	0.449371337890625
801	0.44677734375	254.364171357792	-0.00104095458984375	0.446929931640625
802	0.4443359375	254.388571357731	-0.00101226806640625	0.444488525390625
803	0.44189453125	254.412971357669	-0.00104644775390625	0.4420166015625
804	0.439453125	254.437371357607	-0.0010174560546875	0.43951416015625
805	0.43701171875	254.461771357546	-0.00103668212890625	0.4371337890625
806	0.4345703125	254.486171357484	-0.00102813720703125	0.434722900390625
807	0.43212890625	254.510571357423	-0.00102996826171875	0.4322509765625
808	0.4296875	254.534971357361	-0.001043701171875	0.4298095703125
809	0.42724609375	254.559371357299	-0.00102294921875	0.4273681640625
810	0.4248046875	254.583771357238	-0.00104827880859375	0.424957275390625
811	0.42236328125	254.608171357176	-0.00101837158203125	0.422454833984375
812	0.419921875	254.632571357115	-0.001051025390625	0.420135498046875
813	0.41748046875	254.656971357053	-0.0010272216796875	0.4176025390625
814	0.4150390625	254.681371356991	-0.00104156494140625	0.41510009765625
815	0.41259765625	254.70577135693	-0.00103759765625	0.41278076171875
816	0.41015625	254.730171356868	-0.00103515625	0.4102783203125
817	0.40771484375	254.754571356807	-0.00105316162109375	0.407806396484375
818	0.4052734375	254.778971356745	-0.0010284423828125	0.40533447265625
819	0.40283203125	254.803371356683	-0.00105682373046875	0.40301513671875
820	0.400390625	254.827771356622	-0.00102630615234375	0.400543212890625
821	0.39794921875	254.85217135656	-0.00105712890625	0.398101806640625
822	0.3955078125	254.876571356499	-0.001036376953125	0.3956298828125
823	0.39306640625	254.900971356437	-0.00104644775390625	0.393157958984375
824	0.390625	254.925371356375	-0.0010479736328125	0.390777587890625
825	0.38818359375	254.949771356314	-0.0010400390625	0.3883056640625
826	0.3857421875	254.974171356252	-0.00106353759765625	0.385894775390625
827	0.38330078125	254.99857135619	-0.00103546142578125	0.3834228515625
828	0.380859375	255.022971356129	-0.001064453125	0.38104248046875
829	0.37841796875	255.047371356067	-0.00103485107421875	0.3785400390625
830	0.3759765625	255.071771356006	-0.00106353759765625	0.37615966796875
831	0.37353515625	255.096171355944	-0.0010479736328125	0.373687744140625
832	0.37109375	255.120571355882	-0.00105316162109375	0.371246337890625
833	0.36865234375	255.144971355821	-0.0010589599609375	0.3687744140625
834	0.3662109375	255.169371355759	-0.00104644775390625	0.3663330078125
835	0.36376953125	255.193771355698	-0.00107208251953125	0.36395263671875
836	0.361328125	255.218171355636	-0.00104248046875	0.361480712890625
837	0.35888671875	255.242571355574	-0.00107177734375	0.359100341796875
838	0.3564453125	255.266971355513	-0.00104278564453125	0.3565673828125
839	0.35400390625	255.291371355451	-0.00106689453125	0.3541259765625
840	0.3515625	255.31577135539	-0.00105621337890625	0.3516845703125
841	0.34912109375	255.340171355328	-0.00105560302734375	0.34930419921875
842	0.3466796875	255.364571355266	-0.0010650634765625	0.346832275390625
843	0.34423828125	255.388971355205	-0.00104736328125	0.344390869140625
844	0.341796875	255.413371355143	-0.0010760498046875	0.341949462890625
845	0.33935546875	255.437771355082	-0.00104400634765625	0.33941650390625
846	0.3369140625	255.46217135502	-0.0010723876953125	0.33709716796875
847	0.33447265625	255.486571354958	-0.001046142578125	0.334625244140625
848	0.33203125	255.510971354897	-0.00106719970703125	0.3321533203125
849	0.32958984375	255.535371354835	-0.00106231689453125	0.32977294921875
850	0.3271484375	255.559771354774	-0.00105743408203125	0.327301025390625
851	0.32470703125	255.584171354712	-0.00107208251953125	0.324859619140625
852	0.322265625	255.60857135465	-0.001051025390625	0.322418212890625
853	0.31982421875	255.632971354589	-0.00108184814453125	0.319976806640625
854	0.3173828125	255.657371354527	-0.0010504150390625	0.3175048828125
855	0.31494140625	255.681771354466	-0.00107696533203125	0.31500244140625
856	0.3125	255.706171354404	-0.0010546875	0.3126220703125
857	0.31005859375	255.730571354342	-0.00107177734375	0.31024169921875
858	0.3076171875	255.754971354281	-0.0010723876953125	0.3077392578125
859	0.30517578125	255.779371354219	-0.0010626220703125	0.3052978515625
860	0.302734375	255.803771354158	-0.00108154296875	0.302886962890625
861	0.30029296875	255.828171354096	-0.00105712890625	0.300445556640625
862	0.2978515625	255.852571354034	-0.00109039306640625	0.298065185546875
863	0.29541015625	255.876971353973	-0.00105865478515625	0.29559326171875
864	0.29296875	255.901371353911	-0.0010833740234375	0.293060302734375
865	0.29052734375	255.92577135385	-0.00106536865234375	0.2906494140625
866	0.2880859375	255.950171353788	-0.00107696533203125	0.288238525390625
867	0.28564453125	255.974571353726	-0.00108245849609375	0.28582763671875
868	0.283203125	255.998971353665	-0.00106781005859375	0.283355712890625
869	0.28076171875	256.023371353603	-0.00108917236328125	0.280975341796875
870	0.2783203125	256.047771353542	-0.0010614013671875	0.2784423828125
871	0.27587890625	256.07217135348	-0.00109466552734375	0.2760009765625
872	0.2734375	256.096571353418	-0.00106292724609375	0.27362060546875
873	0.27099609375	256.120971353357	-0.001083984375	0.2711181640625
874	0.2685546875	256.145371353295	-0.00106964111328125	0.2686767578125
875	0.26611328125	256.169771353234	-0.00107574462890625	0.2662353515625
876	0.263671875	256.194171353172	-0.001085205078125	0.263824462890625
877	0.26123046875	256.21857135311	-0.001065673828125	0.261383056640625
878	0.2587890625	256.242971353049	-0.001090087890625	0.259002685546875
879	0.25634765625	256.267371352987	-0.00106048583984375	0.25653076171875
880	0.25390625	256.291771352925	-0.00109375	0.254180908203125
881	0.25146484375	256.316171352864	-0.0010650634765625	0.251617431640625
882	0.2490234375	256.340571352802	-0.0010833740234375	0.2491455078125
883	0.24658203125	256.364971352741	-0.00107452392578125	0.246734619140625
884	0.244140625	256.389371352679	-0.00107635498046875	0.244293212890625
885	0.24169921875	256.413771352617	-0.00109100341796875	0.2418212890625
886	0.2392578125	256.438171352556	-0.00106903076171875	0.2393798828125
887	0.23681640625	256.462571352494	-0.00109649658203125	0.23699951171875
888	0.234375	256.486971352433	-0.0010662841796875	0.23455810546875
889	0.23193359375	256.511371352371	-0.00109954833984375	0.232208251953125
890	0.2294921875	256.535771352309	-0.00107452392578125	0.229583740234375
891	0.22705078125	256.560171352248	-0.0010894775390625	0.227203369140625
892	0.224609375	256.584571352186	-0.00108612060546875	0.22479248046875
893	0.22216796875	256.608971352125	-0.00108306884765625	0.2222900390625
894	0.2197265625	256.633371352063	-0.00110137939453125	0.219970703125
895	0.21728515625	256.657771352001	-0.0010760498046875	0.2174072265625
896	0.21484375	256.68217135194	-0.0011053466796875	0.215057373046875
897	0.21240234375	256.706571351878	-0.00107421875	0.21258544921875
898	0.2099609375	256.730971351817	-0.0011053466796875	0.21014404296875
899	0.20751953125	256.755371351755	-0.001083984375	0.20770263671875
900	0.205078125	256.779771351693	-0.0010943603515625	0.205230712890625
901	0.20263671875	256.804171351632	-0.001094970703125	0.202789306640625
902	0.2001953125	256.82857135157	-0.00108673095703125	0.20037841796875
903	0.19775390625	256.852971351509	-0.00110870361328125	0.197906494140625
904	0.1953125	256.877371351447	-0.00108001708984375	0.195465087890625
905	0.19287109375	256.901771351385	-0.0011090087890625	0.19305419921875
906	0.1904296875	256.926171351324	-0.001077880859375	0.1905517578125
907	0.18798828125	256.950571351262	-0.00110565185546875	0.188079833984375
908	0.185546875	256.974971351201	-0.0010882568359375	0.185760498046875
909	0.18310546875	256.999371351139	-0.0010931396484375	0.18328857421875
910	0.1806640625	257.023771351077	-0.001097412109375	0.18084716796875
911	0.17822265625	257.048171351016	-0.0010845947265625	0.1783447265625
912	0.17578125	257.072571350954	-0.001109619140625	0.17596435546875
913	0.17333984375	257.096971350893	-0.0010784912109375	0.173492431640625
914	0.1708984375	257.121371350831	-0.001107177734375	0.171142578125
915	0.16845703125	257.145771350769	-0.0010772705078125	0.16864013671875
916	0.166015625	257.170171350708	-0.001102294921875	0.166168212890625
917	0.16357421875	257.194571350646	-0.0010906982421875	0.163726806640625
918	0.1611328125	257.218971350585	-0.00109100341796875	0.161346435546875
919	0.15869140625	257.243371350523	-0.00110015869140625	0.15887451171875
920	0.15625	257.267771350461	-0.00108367919921875	0.156402587890625
921	0.15380859375	257.2921713504	-0.0011126708984375	0.154022216796875
922	0.1513671875	257.316571350338	-0.0010809326171875	0.1514892578125
923	0.14892578125	257.340971350277	-0.00111053466796875	0.14910888671875
924	0.146484375	257.365371350215	-0.00108306884765625	0.146697998046875
925	0.14404296875	257.389771350153	-0.0011053466796875	0.144256591796875
926	0.1416015625	257.414171350092	-0.0010992431640625	0.14178466796875
927	0.13916015625	257.43857135003	-0.00109527587890625	0.139312744140625
928	0.13671875	257.462971349968	-0.00110931396484375	0.136932373046875
929	0.13427734375	257.487371349907	-0.0010888671875	0.13446044921875
930	0.1318359375	257.511771349845	-0.00112030029296875	0.132080078125
931	0.12939453125	257.536171349784	-0.00108795166015625	0.12957763671875
932	0.126953125	257.560571349722	-0.00111602783203125	0.127166748046875
933	0.12451171875	257.58497134966	-0.001092529296875	0.124725341796875
934	0.1220703125	257.609371349599	-0.0011102294921875	0.12225341796875
935	0.11962890625	257.633771349537	-0.00110809326171875	0.11981201171875
936	0.1171875	257.658171349476	-0.00109893798828125	0.11737060546875
937	0.11474609375	257.682571349414	-0.00111541748046875	0.114990234375
938	0.1123046875	257.706971349352	-0.00109100341796875	0.112396240234375
939	0.10986328125	257.731371349291	-0.00112335205078125	0.11004638671875
940	0.107421875	257.755771349229	-0.001090087890625	0.107635498046875
941	0.10498046875	257.780171349168	-0.0011151123046875	0.10516357421875
942	0.1025390625	257.804571349106	-0.0010943603515625	0.102691650390625
943	0.10009765625	257.828971349044	-0.001107177734375	0.10028076171875
944	0.09765625	257.853371348983	-0.001109619140625	0.097808837890625
945	0.09521484375	257.877771348921	-0.00109619140625	0.09539794921875
946	0.0927734375	257.90217134886	-0.00111602783203125	0.093048095703125
947	0.09033203125	257.926571348798	-0.0010894775390625	0.09051513671875
948	0.087890625	257.950971348736	-0.0011224365234375	0.08807373046875
949	0.08544921875	257.975371348675	-0.00109039306640625	0.085601806640625
950	0.0830078125	257.999771348613	-0.00111328125	0.083160400390625
951	0.08056640625	258.024171348552	-0.001097412109375	0.08074951171875
952	0.078125	258.04857134849	-0.0011065673828125	0.078338623046875
953	0.07568359375	258.072971348428	-0.00111419677734375	0.07586669921875
954	0.0732421875	258.097371348367	-0.001097412109375	0.07342529296875
955	0.07080078125	258.121771348305	-0.0011212158203125	0.07098388671875
956	0.068359375	258.146171348244	-0.00109283447265625	0.068511962890625
957	0.06591796875	258.170571348182	-0.0011273193359375	0.066162109375
958	0.0634765625	258.19497134812	-0.001097412109375	0.063629150390625
959	0.06103515625	258.219371348059	-0.00111785888671875	0.0611572265625
960	0.05859375	258.243771347997	-0.001107177734375	0.05877685546875
961	0.05615234375	258.268171347936	-0.0011114501953125	0.056396484375
962	0.0537109375	258.292571347874	-0.00112335205078125	0.053955078125
963	0.05126953125	258.316971347812	-0.0011029052734375	0.05145263671875
964	0.048828125	258.341371347751	-0.00112823486328125	0.0490234375
965	0.04638671875	258.365771347689	-0.00109832763671875	0.0465606689453125
966	0.0439453125	258.390171347628	-0.00113189697265625	0.0441741943359375
967	0.04150390625	258.414571347566	-0.0011041259765625	0.0416656494140625
968	0.0390625	258.438971347504	-0.0011212158203125	0.0392120361328125
969	0.03662109375	258.463371347443	-0.00111328125	0.0367828369140625
970	0.0341796875	258.487771347381	-0.00111297607421875	0.0343292236328125
971	0.03173828125	258.51217134732	-0.0011285400390625	0.031915283203125
972	0.029296875	258.536571347258	-0.0011041259765625	0.0294403076171875
973	0.02685546875	258.560971347196	-0.00113128662109375	0.0270660400390625
974	0.0244140625	258.585371347135	-0.00109954833984375	0.0245635986328125
975	0.02197265625	258.609771347073	-0.001131591796875	0.022186279296875
976	0.01953125	258.634171347011	-0.0011065673828125	0.0196807861328125
977	0.01708984375	258.65857134695	-0.001119384765625	0.01724853515625
978	0.0146484375	258.682971346888	-0.00111572265625	0.0148223876953125
979	0.01220703125	258.707371346827	-0.00111053466796875	0.012359619140625
980	0.009765625	258.731771346765	-0.0011297607421875	0.00995788574218751
981	0.00732421875	258.756171346703	-0.00110321044921875	0.00748291015624999
982	0.0048828125	258.780571346642	-0.00113189697265625	0.005126953125
983	0.00244140625	258.80497134658	-0.00110015869140625	0.002606201171875
984	0	258.829371346519	-0.0011309814453125	0.000170898437499997
985	0.00244140625	258.853771346457	-0.001109619140625	0.00260314941406251
986	0.0048828125	258.878171346395	-0.0011175537109375	0.005047607421875
987	0.00732421875	258.902571346334	-0.0011181640625	0.0075103759765625
988	0.009765625	258.926971346272	-0.00110809326171875	0.0099334716796875
989	0.01220703125	258.951371346211	-0.00113037109375	0.0124053955078125
990	0.0146484375	258.975771346149	-0.00110076904296875	0.0148040771484375
991	0.01708984375	259.000171346087	-0.00113037109375	0.0173095703125
992	0.01953125	259.024571346026	-0.00109893798828125	0.0196929931640625
993	0.02197265625	259.048971345964	-0.00112640380859375	0.0221466064453125
