Index	Potential applied (V)	Time (s)	WE(1).Current (A)	WE(1).Potential (V)
1	0.00244140625	6.92894598250609	-0.00120391845703125	0.0025970458984375
2	0.0048828125	6.95334598244449	-0.001240234375	0.00510559082031251
3	0.00732421875	6.97774598238288	-0.00120635986328125	0.0074798583984375
4	0.009765625	7.00214598232128	-0.001226806640625	0.00989379882812499
5	0.01220703125	7.02654598225968	-0.00121429443359375	0.0123687744140625
6	0.0146484375	7.05094598219807	-0.00121612548828125	0.01480712890625
7	0.01708984375	7.07534598213647	-0.00122894287109375	0.017266845703125
8	0.01953125	7.09974598207486	-0.00120391845703125	0.0197021484375
9	0.02197265625	7.12414598201326	-0.00123199462890625	0.022186279296875
10	0.0244140625	7.14854598195166	-0.00119598388671875	0.0245574951171875
11	0.02685546875	7.17294598189005	-0.00123077392578125	0.0270721435546875
12	0.029296875	7.19734598182845	-0.001199951171875	0.029449462890625
13	0.03173828125	7.22174598176684	-0.0012152099609375	0.0318603515625
14	0.0341796875	7.24614598170524	-0.00120819091796875	0.0343505859375
15	0.03662109375	7.27054598164364	-0.00120330810546875	0.036773681640625
16	0.0390625	7.29494598158203	-0.0012213134765625	0.03924560546875
17	0.04150390625	7.31934598152043	-0.0011920166015625	0.0416595458984375
18	0.0439453125	7.34374598145882	-0.001221923828125	0.0441864013671875
19	0.04638671875	7.36814598139722	-0.00118621826171875	0.0465423583984375
20	0.048828125	7.39254598133562	-0.00121917724609375	0.0490142822265625
21	0.05126953125	7.41694598127401	-0.00119476318359375	0.05145263671875
22	0.0537109375	7.44134598121241	-0.0012042236328125	0.05389404296875
23	0.05615234375	7.4657459811508	-0.001204833984375	0.056396484375
24	0.05859375	7.4901459810892	-0.0011944580078125	0.05877685546875
25	0.06103515625	7.5145459810276	-0.00121856689453125	0.061248779296875
26	0.0634765625	7.53894598096599	-0.00118621826171875	0.063690185546875
27	0.06591796875	7.56334598090439	-0.00121826171875	0.066192626953125
28	0.068359375	7.58774598084278	-0.00118377685546875	0.06854248046875
29	0.07080078125	7.61214598078118	-0.00121429443359375	0.071014404296875
30	0.0732421875	7.63654598071957	-0.00119659423828125	0.07342529296875
31	0.07568359375	7.66094598065797	-0.0012005615234375	0.075836181640625
32	0.078125	7.68534598059637	-0.00120697021484375	0.078369140625
33	0.08056640625	7.70974598053476	-0.00119140625	0.08074951171875
34	0.0830078125	7.73414598047316	-0.0012200927734375	0.083251953125
35	0.08544921875	7.75854598041155	-0.001185302734375	0.085662841796875
36	0.087890625	7.78294598034995	-0.001217041015625	0.088134765625
37	0.09033203125	7.80734598028835	-0.00118438720703125	0.090545654296875
38	0.0927734375	7.83174598022674	-0.0012103271484375	0.092987060546875
39	0.09521484375	7.85614598016514	-0.00119873046875	0.095428466796875
40	0.09765625	7.88054598010353	-0.0011968994140625	0.09783935546875
41	0.10009765625	7.90494598004193	-0.00120819091796875	0.100341796875
42	0.1025390625	7.92934597998033	-0.00118743896484375	0.10272216796875
43	0.10498046875	7.95374597991872	-0.0012188720703125	0.105224609375
44	0.107421875	7.97814597985712	-0.0011822509765625	0.107574462890625
45	0.10986328125	8.00254597979551	-0.00121246337890625	0.11004638671875
46	0.1123046875	8.02694597973391	-0.001182861328125	0.112518310546875
47	0.11474609375	8.05134597967231	-0.00120330810546875	0.114898681640625
48	0.1171875	8.0757459796107	-0.00119720458984375	0.1173095703125
49	0.11962890625	8.1001459795491	-0.00118896484375	0.119781494140625
50	0.1220703125	8.12454597948749	-0.001204833984375	0.12225341796875
51	0.12451171875	8.14894597942589	-0.00117889404296875	0.12469482421875
52	0.126953125	8.17334597936429	-0.00121246337890625	0.127197265625
53	0.12939453125	8.19774597930268	-0.00117523193359375	0.12957763671875
54	0.1318359375	8.22214597924108	-0.00120361328125	0.13201904296875
55	0.13427734375	8.24654597917947	-0.0011785888671875	0.134429931640625
56	0.13671875	8.27094597911787	-0.00119415283203125	0.13690185546875
57	0.13916015625	8.29534597905626	-0.001195068359375	0.139404296875
58	0.1416015625	8.31974597899466	-0.00118133544921875	0.1417236328125
59	0.14404296875	8.34414597893306	-0.00120208740234375	0.144256591796875
60	0.146484375	8.36854597887145	-0.0011724853515625	0.14666748046875
61	0.14892578125	8.39294597880985	-0.00120849609375	0.149078369140625
62	0.1513671875	8.41734597874824	-0.0011724853515625	0.151519775390625
63	0.15380859375	8.44174597868664	-0.0011981201171875	0.1539306640625
64	0.15625	8.46614597862504	-0.00117919921875	0.156402587890625
65	0.15869140625	8.49054597856343	-0.00118927001953125	0.15887451171875
66	0.1611328125	8.51494597850183	-0.0011962890625	0.161346435546875
67	0.16357421875	8.53934597844022	-0.001177978515625	0.16375732421875
68	0.166015625	8.56374597837862	-0.0012030029296875	0.166229248046875
69	0.16845703125	8.58814597831702	-0.00117095947265625	0.168609619140625
70	0.1708984375	8.61254597825541	-0.00120758056640625	0.171142578125
71	0.17333984375	8.63694597819381	-0.00117279052734375	0.1734619140625
72	0.17578125	8.6613459781322	-0.0011944580078125	0.1759033203125
73	0.17822265625	8.6857459780706	-0.00118133544921875	0.178436279296875
74	0.1806640625	8.710145978009	-0.00118408203125	0.18084716796875
75	0.18310546875	8.73454597794739	-0.00119659423828125	0.18328857421875
76	0.185546875	8.75894597788579	-0.00117279052734375	0.185638427734375
77	0.18798828125	8.78334597782418	-0.00120025634765625	0.18817138671875
78	0.1904296875	8.80774597776258	-0.001165771484375	0.19061279296875
79	0.19287109375	8.83214597770097	-0.00120086669921875	0.193084716796875
80	0.1953125	8.85654597763937	-0.00116973876953125	0.19549560546875
81	0.19775390625	8.88094597757777	-0.001185302734375	0.197906494140625
82	0.2001953125	8.90534597751616	-0.00117767333984375	0.20037841796875
83	0.20263671875	8.92974597745456	-0.00117401123046875	0.202850341796875
84	0.205078125	8.95414597739295	-0.0011907958984375	0.20526123046875
85	0.20751953125	8.97854597733135	-0.00116241455078125	0.207672119140625
86	0.2099609375	9.00294597726975	-0.00119140625	0.210174560546875
87	0.21240234375	9.02734597720814	-0.001156005859375	0.2125244140625
88	0.21484375	9.05174597714654	-0.00118896484375	0.21502685546875
89	0.21728515625	9.07614597708493	-0.001163330078125	0.2174072265625
90	0.2197265625	9.10054597702333	-0.00117401123046875	0.219879150390625
91	0.22216796875	9.12494597696173	-0.00117218017578125	0.22235107421875
92	0.224609375	9.14934597690012	-0.00116363525390625	0.224761962890625
93	0.22705078125	9.17374597683852	-0.00118621826171875	0.22723388671875
94	0.2294921875	9.19814597677691	-0.00115478515625	0.229644775390625
95	0.23193359375	9.22254597671531	-0.0011865234375	0.232177734375
96	0.234375	9.24694597665371	-0.00115203857421875	0.23455810546875
97	0.23681640625	9.2713459765921	-0.001182861328125	0.236907958984375
98	0.2392578125	9.2957459765305	-0.00116363525390625	0.239410400390625
99	0.24169921875	9.32014597646889	-0.00116943359375	0.24188232421875
100	0.244140625	9.34454597640729	-0.0011737060546875	0.2442626953125
101	0.24658203125	9.36894597634569	-0.0011590576171875	0.246673583984375
102	0.2490234375	9.39334597628408	-0.0011865234375	0.24920654296875
103	0.25146484375	9.41774597622248	-0.00115264892578125	0.251678466796875
104	0.25390625	9.44214597616087	-0.00118377685546875	0.254119873046875
105	0.25634765625	9.46654597609927	-0.00115081787109375	0.256561279296875
106	0.2587890625	9.49094597603766	-0.00117706298828125	0.258880615234375
107	0.26123046875	9.51534597597606	-0.00116455078125	0.261444091796875
108	0.263671875	9.53974597591446	-0.00116302490234375	0.2637939453125
109	0.26611328125	9.56414597585285	-0.001173095703125	0.266265869140625
110	0.2685546875	9.58854597579125	-0.00115234375	0.26873779296875
111	0.27099609375	9.61294597572964	-0.001182861328125	0.271148681640625
112	0.2734375	9.63734597566804	-0.001146240234375	0.273590087890625
113	0.27587890625	9.66174597560644	-0.00117584228515625	0.2760009765625
114	0.2783203125	9.68614597554483	-0.00114593505859375	0.2784423828125
115	0.28076171875	9.71054597548323	-0.00116668701171875	0.280853271484375
116	0.283203125	9.73494597542162	-0.00115936279296875	0.28338623046875
117	0.28564453125	9.75934597536002	-0.001151123046875	0.285797119140625
118	0.2880859375	9.78374597529842	-0.0011663818359375	0.288299560546875
119	0.29052734375	9.80814597523681	-0.00114044189453125	0.290679931640625
120	0.29296875	9.83254597517521	-0.001173095703125	0.29315185546875
121	0.29541015625	9.8569459751136	-0.0011358642578125	0.295501708984375
122	0.2978515625	9.881345975052	-0.00116424560546875	0.29803466796875
123	0.30029296875	9.9057459749904	-0.001138916015625	0.300506591796875
124	0.302734375	9.93014597492879	-0.00115478515625	0.302886962890625
125	0.30517578125	9.95454597486719	-0.0011541748046875	0.305267333984375
126	0.3076171875	9.97894597480558	-0.00114166259765625	0.307769775390625
127	0.31005859375	10.003345974744	-0.00116119384765625	0.3101806640625
128	0.3125	10.0277459746824	-0.0011328125	0.3126220703125
129	0.31494140625	10.0521459746208	-0.001168212890625	0.315155029296875
130	0.3173828125	10.0765459745592	-0.0011322021484375	0.3175048828125
131	0.31982421875	10.1009459744976	-0.00115814208984375	0.3199462890625
132	0.322265625	10.125345974436	-0.001138916015625	0.3223876953125
133	0.32470703125	10.1497459743744	-0.0011492919921875	0.3248291015625
134	0.3271484375	10.1741459743128	-0.00115509033203125	0.3272705078125
135	0.32958984375	10.1985459742511	-0.0011370849609375	0.3297119140625
136	0.33203125	10.2229459741895	-0.0011614990234375	0.332244873046875
137	0.33447265625	10.2473459741279	-0.00113037109375	0.334625244140625
138	0.3369140625	10.2717459740663	-0.0011663818359375	0.33709716796875
139	0.33935546875	10.2961459740047	-0.00113250732421875	0.3394775390625
140	0.341796875	10.3205459739431	-0.00115447998046875	0.341949462890625
141	0.34423828125	10.3449459738815	-0.00114105224609375	0.3443603515625
142	0.3466796875	10.3693459738199	-0.0011444091796875	0.3468017578125
143	0.34912109375	10.3937459737583	-0.001156005859375	0.349273681640625
144	0.3515625	10.4181459736967	-0.00113250732421875	0.3516845703125
145	0.35400390625	10.4425459736351	-0.00115936279296875	0.354248046875
146	0.3564453125	10.4669459735735	-0.00112579345703125	0.356658935546875
147	0.35888671875	10.4913459735119	-0.00115997314453125	0.359100341796875
148	0.361328125	10.5157459734503	-0.00112884521484375	0.36151123046875
149	0.36376953125	10.5401459733887	-0.00114501953125	0.36383056640625
150	0.3662109375	10.5645459733271	-0.0011370849609375	0.3663330078125
151	0.36865234375	10.5889459732655	-0.00113372802734375	0.3687744140625
152	0.37109375	10.6133459732039	-0.00114990234375	0.37127685546875
153	0.37353515625	10.6377459731423	-0.00112274169921875	0.373687744140625
154	0.3759765625	10.6621459730807	-0.00115081787109375	0.37615966796875
155	0.37841796875	10.6865459730191	-0.00111541748046875	0.378570556640625
156	0.380859375	10.7109459729575	-0.00114837646484375	0.381072998046875
157	0.38330078125	10.7353459728959	-0.00112213134765625	0.3834228515625
158	0.3857421875	10.7597459728343	-0.001134033203125	0.385833740234375
159	0.38818359375	10.7841459727726	-0.00113128662109375	0.3883056640625
160	0.390625	10.808545972711	-0.001123046875	0.390777587890625
161	0.39306640625	10.8329459726494	-0.00114532470703125	0.393218994140625
162	0.3955078125	10.8573459725878	-0.00111480712890625	0.39569091796875
163	0.39794921875	10.8817459725262	-0.00114501953125	0.398193359375
164	0.400390625	10.9061459724646	-0.00111083984375	0.400543212890625
165	0.40283203125	10.930545972403	-0.00114288330078125	0.402984619140625
166	0.4052734375	10.9549459723414	-0.001123046875	0.405426025390625
167	0.40771484375	10.9793459722798	-0.00112945556640625	0.407867431640625
168	0.41015625	11.0037459722182	-0.0011328125	0.410308837890625
169	0.41259765625	11.0281459721566	-0.00111968994140625	0.4127197265625
170	0.4150390625	11.052545972095	-0.00114593505859375	0.415191650390625
171	0.41748046875	11.0769459720334	-0.00111175537109375	0.4176025390625
172	0.419921875	11.1013459719718	-0.0011431884765625	0.420074462890625
173	0.42236328125	11.1257459719102	-0.0011102294921875	0.4224853515625
174	0.4248046875	11.1501459718486	-0.00113739013671875	0.424957275390625
175	0.42724609375	11.174545971787	-0.001123046875	0.4273681640625
176	0.4296875	11.1989459717254	-0.00112335205078125	0.429840087890625
177	0.43212890625	11.2233459716638	-0.00113128662109375	0.43231201171875
178	0.4345703125	11.2477459716022	-0.0011114501953125	0.4346923828125
179	0.43701171875	11.2721459715406	-0.00114105224609375	0.43719482421875
180	0.439453125	11.296545971479	-0.00110626220703125	0.439544677734375
181	0.44189453125	11.3209459714174	-0.001136474609375	0.4420166015625
182	0.4443359375	11.3453459713558	-0.00110504150390625	0.4444580078125
183	0.44677734375	11.3697459712942	-0.001126708984375	0.4468994140625
184	0.44921875	11.3941459712325	-0.0011187744140625	0.4493408203125
185	0.45166015625	11.4185459711709	-0.00111236572265625	0.4517822265625
186	0.4541015625	11.4429459711093	-0.0011248779296875	0.454254150390625
187	0.45654296875	11.4673459710477	-0.00110107421875	0.4566650390625
188	0.458984375	11.4917459709861	-0.00113311767578125	0.459136962890625
189	0.46142578125	11.5161459709245	-0.0010968017578125	0.46148681640625
190	0.4638671875	11.5405459708629	-0.00112396240234375	0.46405029296875
191	0.46630859375	11.5649459708013	-0.00109771728515625	0.466461181640625
192	0.46875	11.5893459707397	-0.0011151123046875	0.468780517578125
193	0.47119140625	11.6137459706781	-0.00111236572265625	0.471343994140625
194	0.4736328125	11.6381459706165	-0.00110198974609375	0.473724365234375
195	0.47607421875	11.6625459705549	-0.0011187744140625	0.4761962890625
196	0.478515625	11.6869459704933	-0.00109161376953125	0.4786376953125
197	0.48095703125	11.7113459704317	-0.00112335205078125	0.4810791015625
198	0.4833984375	11.7357459703701	-0.001087646484375	0.483489990234375
199	0.48583984375	11.7601459703085	-0.00111328125	0.48590087890625
200	0.48828125	11.7845459702469	-0.00109130859375	0.488433837890625
201	0.49072265625	11.8089459701853	-0.001103515625	0.49078369140625
202	0.4931640625	11.8333459701237	-0.00110687255859375	0.4932861328125
203	0.49560546875	11.8577459700621	-0.00109039306640625	0.4957275390625
204	0.498046875	11.8821459700005	-0.00111175537109375	0.4981689453125
205	0.50048828125	11.9065459699389	-0.0010809326171875	0.50054931640625
206	0.5029296875	11.9309459698773	-0.00111602783203125	0.503021240234375
207	0.50537109375	11.9553459698157	-0.00108062744140625	0.50543212890625
208	0.5078125	11.979745969754	-0.001103515625	0.507843017578125
209	0.51025390625	12.0041459696924	-0.0010858154296875	0.510345458984375
210	0.5126953125	12.0285459696308	-0.00109161376953125	0.512786865234375
211	0.51513671875	12.0529459695692	-0.0010992431640625	0.5152587890625
212	0.517578125	12.0773459695076	-0.001077880859375	0.51763916015625
213	0.52001953125	12.101745969446	-0.001102294921875	0.520172119140625
214	0.5224609375	12.1261459693844	-0.00106842041015625	0.5225830078125
215	0.52490234375	12.1505459693228	-0.00110137939453125	0.525054931640625
216	0.52734375	12.1749459692612	-0.00106781005859375	0.527435302734375
217	0.52978515625	12.1993459691996	-0.001085205078125	0.529815673828125
218	0.5322265625	12.223745969138	-0.00107269287109375	0.5323486328125
219	0.53466796875	12.2481459690764	-0.00107177734375	0.53472900390625
220	0.537109375	12.2725459690148	-0.001083984375	0.537261962890625
221	0.53955078125	12.2969459689532	-0.00105682373046875	0.539581298828125
222	0.5419921875	12.3213459688916	-0.00108306884765625	0.5421142578125
223	0.54443359375	12.34574596883	-0.00104766845703125	0.54449462890625
224	0.546875	12.3701459687684	-0.0010809326171875	0.5469970703125
225	0.54931640625	12.3945459687068	-0.00105072021484375	0.549407958984375
226	0.5517578125	12.4189459686452	-0.00106201171875	0.551849365234375
227	0.55419921875	12.4433459685836	-0.001055908203125	0.5543212890625
228	0.556640625	12.467745968522	-0.0010491943359375	0.556671142578125
229	0.55908203125	12.4921459684604	-0.00106597900390625	0.55914306640625
230	0.5615234375	12.5165459683988	-0.00103729248046875	0.56158447265625
231	0.56396484375	12.5409459683372	-0.00106536865234375	0.5640869140625
232	0.56640625	12.5653459682756	-0.00102996826171875	0.566436767578125
233	0.56884765625	12.5897459682139	-0.0010595703125	0.5689697265625
234	0.5712890625	12.6141459681523	-0.00103546142578125	0.571319580078125
235	0.57373046875	12.6385459680907	-0.00104248046875	0.573822021484375
236	0.576171875	12.6629459680291	-0.001041259765625	0.57623291015625
237	0.57861328125	12.6873459679675	-0.001029052734375	0.57867431640625
238	0.5810546875	12.7117459679059	-0.00105010986328125	0.581146240234375
239	0.58349609375	12.7361459678443	-0.001016845703125	0.58355712890625
240	0.5859375	12.7605459677827	-0.0010443115234375	0.5860595703125
241	0.58837890625	12.7849459677211	-0.0010089111328125	0.588409423828125
242	0.5908203125	12.8093459676595	-0.00103546142578125	0.59088134765625
243	0.59326171875	12.8337459675979	-0.001016845703125	0.593353271484375
244	0.595703125	12.8581459675363	-0.0010174560546875	0.595733642578125
245	0.59814453125	12.8825459674747	-0.0010205078125	0.5982666015625
246	0.6005859375	12.9069459674131	-0.0010015869140625	0.6007080078125
247	0.60302734375	12.9313459673515	-0.0010260009765625	0.60308837890625
248	0.60546875	12.9557459672899	-0.0009912109375	0.605560302734375
249	0.60791015625	12.9801459672283	-0.00101898193359375	0.60797119140625
250	0.6103515625	13.0045459671667	-0.0009832763671875	0.610382080078125
251	0.61279296875	13.0289459671051	-0.00100372314453125	0.612823486328125
252	0.615234375	13.0533459670435	-0.0009906005859375	0.61529541015625
253	0.61767578125	13.0777459669819	-0.000986328125	0.617767333984375
254	0.6201171875	13.1021459669203	-0.00099334716796875	0.620208740234375
255	0.62255859375	13.1265459668587	-0.00096923828125	0.622589111328125
256	0.625	13.1509459667971	-0.00099700927734375	0.625091552734375
257	0.62744140625	13.1753459667354	-0.0009600830078125	0.627471923828125
258	0.6298828125	13.1997459666738	-0.0009844970703125	0.62994384765625
259	0.63232421875	13.2241459666122	-0.0009539794921875	0.632354736328125
260	0.634765625	13.2485459665506	-0.00096954345703125	0.634796142578125
261	0.63720703125	13.272945966489	-0.0009600830078125	0.63726806640625
262	0.6396484375	13.2973459664274	-0.000950927734375	0.6396484375
263	0.64208984375	13.3217459663658	-0.00096282958984375	0.642181396484375
264	0.64453125	13.3461459663042	-0.0009356689453125	0.64453125
265	0.64697265625	13.3705459662426	-0.00096405029296875	0.647064208984375
266	0.6494140625	13.394945966181	-0.000927734375	0.6494140625
267	0.65185546875	13.4193459661194	-0.0009490966796875	0.65185546875
268	0.654296875	13.4437459660578	-0.00092254638671875	0.654296875
269	0.65673828125	13.4681459659962	-0.0009344482421875	0.656707763671875
270	0.6591796875	13.4925459659346	-0.0009307861328125	0.659149169921875
271	0.66162109375	13.516945965873	-0.0009149169921875	0.661590576171875
272	0.6640625	13.5413459658114	-0.0009283447265625	0.66412353515625
273	0.66650390625	13.5657459657498	-0.0008978271484375	0.666473388671875
274	0.6689453125	13.5901459656882	-0.0009271240234375	0.668975830078125
275	0.67138671875	13.6145459656266	-0.00088958740234375	0.67138671875
276	0.673828125	13.638945965565	-0.00090911865234375	0.673736572265625
277	0.67626953125	13.6633459655034	-0.00088592529296875	0.67626953125
278	0.6787109375	13.6877459654418	-0.000889892578125	0.6787109375
279	0.68115234375	13.7121459653802	-0.00089019775390625	0.68115234375
280	0.68359375	13.7365459653186	-0.00086761474609375	0.68353271484375
281	0.68603515625	13.760945965257	-0.0008831787109375	0.68603515625
282	0.6884765625	13.7853459651953	-0.0008477783203125	0.688385009765625
283	0.69091796875	13.8097459651337	-0.0008746337890625	0.690948486328125
284	0.693359375	13.8341459650721	-0.0008367919921875	0.69329833984375
285	0.69580078125	13.8585459650105	-0.00084930419921875	0.695709228515625
286	0.6982421875	13.8829459649489	-0.00083343505859375	0.698211669921875
287	0.70068359375	13.9073459648873	-0.00082977294921875	0.700592041015625
288	0.703125	13.9317459648257	-0.000833740234375	0.703033447265625
289	0.70556640625	13.9561459647641	-0.00080780029296875	0.705535888671875
290	0.7080078125	13.9805459647025	-0.0008258056640625	0.7080078125
291	0.71044921875	14.0049459646409	-0.000789794921875	0.7103271484375
292	0.712890625	14.0293459645793	-0.00081390380859375	0.71282958984375
293	0.71533203125	14.0537459645177	-0.00078094482421875	0.71527099609375
294	0.7177734375	14.0781459644561	-0.00078887939453125	0.717620849609375
295	0.72021484375	14.1025459643945	-0.00077545166015625	0.720123291015625
296	0.72265625	14.1269459643329	-0.0007659912109375	0.722503662109375
297	0.72509765625	14.1513459642713	-0.00077362060546875	0.7249755859375
298	0.7275390625	14.1757459642097	-0.00074310302734375	0.727447509765625
299	0.72998046875	14.2001459641481	-0.00076080322265625	0.72991943359375
300	0.732421875	14.2245459640865	-0.00072265625	0.732269287109375
301	0.73486328125	14.2489459640249	-0.0007440185546875	0.734771728515625
302	0.7373046875	14.2733459639633	-0.00071319580078125	0.7371826171875
303	0.73974609375	14.2977459639017	-0.00071502685546875	0.739593505859375
304	0.7421875	14.3221459638401	-0.000704345703125	0.7420654296875
305	0.74462890625	14.3465459637785	-0.0006878662109375	0.74444580078125
306	0.7470703125	14.3709459637168	-0.00069671630859375	0.746978759765625
307	0.74951171875	14.3953459636552	-0.00066162109375	0.74932861328125
308	0.751953125	14.4197459635936	-0.0006768798828125	0.7513427734375
309	0.75439453125	14.444145963532	-0.00063873291015625	0.7537841796875
310	0.7568359375	14.4685459634704	-0.00065521240234375	0.7562255859375
311	0.75927734375	14.4929459634088	-0.00062744140625	0.75836181640625
312	0.76171875	14.5173459633472	-0.00062286376953125	0.7611083984375
313	0.76416015625	14.5417459632856	-0.0006146240234375	0.76385498046875
314	0.7666015625	14.566145963224	-0.0005938720703125	0.7659912109375
315	0.76904296875	14.5905459631624	-0.00060333251953125	0.7684326171875
316	0.771484375	14.6149459631008	-0.00056549072265625	0.77117919921875
317	0.77392578125	14.6393459630392	-0.00057830810546875	0.7733154296875
318	0.7763671875	14.6637459629776	-0.0005389404296875	0.77606201171875
319	0.77880859375	14.688145962916	-0.00054931640625	0.77850341796875
320	0.78125	14.7125459628544	-0.00052490234375	0.78094482421875
321	0.78369140625	14.7369459627928	-0.000513916015625	0.78277587890625
322	0.7861328125	14.7613459627312	-0.00050628662109375	0.78582763671875
323	0.78857421875	14.7857459626696	-0.0004791259765625	0.78765869140625
324	0.791015625	14.810145962608	-0.0004888916015625	0.79010009765625
325	0.79345703125	14.8345459625464	-0.000450347900390625	0.792236328125
326	0.7958984375	14.8589459624848	-0.00045806884765625	0.7952880859375
327	0.79833984375	14.8833459624232	-0.00042041015625	0.79742431640625
328	0.80078125	14.9077459623616	-0.0004232177734375	0.79986572265625
329	0.80322265625	14.9321459623	-0.000402252197265625	0.8026123046875
330	0.8056640625	14.9565459622384	-0.00038433837890625	0.80535888671875
331	0.80810546875	14.9809459621767	-0.000378387451171875	0.806884765625
332	0.810546875	15.0053459621151	-0.000346527099609375	0.80963134765625
333	0.81298828125	15.0297459620535	-0.000353271484375	0.8123779296875
334	0.8154296875	15.0541459619919	-0.000312530517578125	0.81451416015625
335	0.81787109375	15.0785459619303	-0.000314697265625	0.81756591796875
336	0.8203125	15.1029459618687	-0.000279693603515625	0.81939697265625
337	0.82275390625	15.1273459618071	-0.0002735595703125	0.821533203125
338	0.8251953125	15.1517459617455	-0.000253448486328125	0.8245849609375
339	0.82763671875	15.1761459616839	-0.00022918701171875	0.8270263671875
340	0.830078125	15.2005459616223	-0.000221435546875	0.828857421875
341	0.83251953125	15.2249459615607	-0.000185455322265625	0.8319091796875
342	0.8349609375	15.2493459614991	-0.000188446044921875	0.833740234375
343	0.83740234375	15.2737459614375	-0.00014605712890625	0.83648681640625
344	0.83984375	15.2981459613759	-0.00014300537109375	0.83953857421875
345	0.84228515625	15.3225459613143	-0.00010809326171875	0.8416748046875
346	0.8447265625	15.3469459612527	-9.58251953125E-05	0.84381103515625
347	0.84716796875	15.3713459611911	-7.708740234375E-05	0.8465576171875
348	0.849609375	15.3957459611295	-4.656982421875E-05	0.848388671875
349	0.85205078125	15.4201459610679	-3.671875E-05	0.85113525390625
350	0.8544921875	15.4445459610063	3.826904296875E-06	0.85357666015625
351	0.85693359375	15.4689459609447	6.793212890625E-06	0.855712890625
352	0.859375	15.4933459608831	4.9041748046875E-05	0.858154296875
353	0.86181640625	15.5177459608215	5.8837890625E-05	0.860595703125
354	0.8642578125	15.5421459607599	9.3475341796875E-05	0.86395263671875
355	0.86669921875	15.5665459606982	0.00011187744140625	0.86578369140625
356	0.869140625	15.5909459606366	0.000132476806640625	0.8685302734375
357	0.87158203125	15.615345960575	0.00016680908203125	0.870361328125
358	0.8740234375	15.6397459605134	0.000180816650390625	0.8734130859375
359	0.87646484375	15.6641459604518	0.00022344970703125	0.87554931640625
360	0.87890625	15.6885459603902	0.000231658935546875	0.877685546875
361	0.88134765625	15.7129459603286	0.000274169921875	0.88043212890625
362	0.8837890625	15.737345960267	0.000291107177734375	0.88287353515625
363	0.88623046875	15.7617459602054	0.0003248291015625	0.8856201171875
364	0.888671875	15.7861459601438	0.000352508544921875	0.88775634765625
365	0.89111328125	15.8105459600822	0.00037408447265625	0.889892578125
366	0.8935546875	15.8349459600206	0.00041229248046875	0.89263916015625
367	0.89599609375	15.859345959959	0.000429901123046875	0.8953857421875
368	0.8984375	15.8837459598974	0.000474395751953125	0.89752197265625
369	0.90087890625	15.9081459598358	0.00048980712890625	0.89996337890625
370	0.9033203125	15.9325459597742	0.0005328369140625	0.9027099609375
371	0.90576171875	15.9569459597126	0.00055694580078125	0.90484619140625
372	0.908203125	15.981345959651	0.00059173583984375	0.90728759765625
373	0.91064453125	16.0057459595894	0.0006243896484375	0.90972900390625
374	0.9130859375	16.0301459595278	0.00064971923828125	0.91217041015625
375	0.91552734375	16.0545459594662	0.00069183349609375	0.91461181640625
376	0.91796875	16.0789459594046	0.0007147216796875	0.9173583984375
377	0.92041015625	16.103345959343	0.00076080322265625	0.92010498046875
378	0.9228515625	16.1277459592814	0.00078338623046875	0.9222412109375
379	0.92529296875	16.1521459592198	0.000826416015625	0.924072265625
380	0.927734375	16.1765459591581	0.0008575439453125	0.9271240234375
381	0.93017578125	16.2009459590965	0.0008929443359375	0.92926025390625
382	0.9326171875	16.2253459590349	0.00093231201171875	0.9320068359375
383	0.93505859375	16.2497459589733	0.00096099853515625	0.9344482421875
384	0.9375	16.2741459589117	0.0010076904296875	0.93719482421875
385	0.93994140625	16.2985459588501	0.0010357666015625	0.9393310546875
386	0.9423828125	16.3229459587885	0.001083984375	0.94146728515625
387	0.94482421875	16.3473459587269	0.00111358642578125	0.9442138671875
388	0.947265625	16.3717459586653	0.00115692138671875	0.94635009765625
389	0.94970703125	16.3961459586037	0.00119354248046875	0.948486328125
390	0.9521484375	16.4205459585421	0.0012322998046875	0.95123291015625
391	0.95458984375	16.4449459584805	0.00127471923828125	0.953369140625
392	0.95703125	16.4693459584189	0.00130950927734375	0.95611572265625
393	0.95947265625	16.4937459583573	0.00135711669921875	0.95855712890625
394	0.9619140625	16.5181459582957	0.00139129638671875	0.96099853515625
395	0.96435546875	16.5425459582341	0.00144073486328125	0.96343994140625
396	0.966796875	16.5669459581725	0.00147674560546875	0.965576171875
397	0.96923828125	16.5913459581109	0.00152099609375	0.96832275390625
398	0.9716796875	16.6157459580493	0.0015643310546875	0.97076416015625
399	0.97412109375	16.6401459579877	0.001605224609375	0.9735107421875
400	0.9765625	16.6645459579261	0.00165283203125	0.97564697265625
401	0.97900390625	16.6889459578645	0.00169189453125	0.97869873046875
402	0.9814453125	16.7133459578029	0.00174163818359375	0.9808349609375
403	0.98388671875	16.7377459577413	0.0017816162109375	0.98297119140625
404	0.986328125	16.7621459576796	0.00183319091796875	0.98602294921875
405	0.98876953125	16.786545957618	0.00187530517578125	0.9881591796875
406	0.9912109375	16.8109459575564	0.001922607421875	0.989990234375
407	0.99365234375	16.8353459574948	0.00196929931640625	0.99273681640625
408	0.99609375	16.8597459574332	0.00201568603515625	0.9954833984375
409	0.99853515625	16.8841459573716	0.00206695556640625	0.99761962890625
410	1.0009765625	16.90854595731	0.00211029052734375	1.00067138671875
411	1.00341796875	16.9329459572484	0.0021624755859375	1.0028076171875
412	1.005859375	16.9573459571868	0.0022088623046875	1.0052490234375
413	1.00830078125	16.9817459571252	0.002261962890625	1.00738525390625
414	1.0107421875	17.0061459570636	0.0023095703125	1.0101318359375
415	1.01318359375	17.030545957002	0.00235992431640625	1.0125732421875
416	1.015625	17.0549459569404	0.00241119384765625	1.01470947265625
417	1.01806640625	17.0793459568788	0.0024615478515625	1.01715087890625
418	1.0205078125	17.1037459568172	0.00251495361328125	1.0198974609375
419	1.02294921875	17.1281459567556	0.00256378173828125	1.0223388671875
420	1.025390625	17.152545956694	0.00261871337890625	1.02447509765625
421	1.02783203125	17.1769459566324	0.0026702880859375	1.0272216796875
422	1.0302734375	17.2013459565708	0.002724609375	1.02935791015625
423	1.03271484375	17.2257459565092	0.0027777099609375	1.03179931640625
424	1.03515625	17.2501459564476	0.00283203125	1.03424072265625
425	1.03759765625	17.274545956386	0.00288604736328125	1.03668212890625
426	1.0400390625	17.2989459563244	0.0029412841796875	1.03912353515625
427	1.04248046875	17.3233459562628	0.0029974365234375	1.04217529296875
428	1.044921875	17.3477459562012	0.0030511474609375	1.043701171875
429	1.04736328125	17.3721459561395	0.00310821533203125	1.04644775390625
430	1.0498046875	17.3965459560779	0.00316375732421875	1.04888916015625
431	1.05224609375	17.4209459560163	0.00322235107421875	1.05133056640625
432	1.0546875	17.4453459559547	0.0032781982421875	1.05377197265625
433	1.05712890625	17.4697459558931	0.00333526611328125	1.05621337890625
434	1.0595703125	17.4941459558315	0.00339202880859375	1.05865478515625
435	1.06201171875	17.5185459557699	0.0034503173828125	1.060791015625
436	1.064453125	17.5429459557083	0.0035076904296875	1.06414794921875
437	1.06689453125	17.5673459556467	0.00356536865234375	1.06597900390625
438	1.0693359375	17.5917459555851	0.00362213134765625	1.06842041015625
439	1.07177734375	17.6161459555235	0.00367950439453125	1.070556640625
440	1.07421875	17.6405459554619	0.00373809814453125	1.07330322265625
441	1.07666015625	17.6649459554003	0.00379425048828125	1.07574462890625
442	1.0791015625	17.6893459553387	0.0038507080078125	1.077880859375
443	1.08154296875	17.7137459552771	0.00390472412109375	1.0809326171875
444	1.083984375	17.7381459552155	0.003961181640625	1.08306884765625
445	1.08642578125	17.7625459551539	0.0040142822265625	1.085205078125
446	1.0888671875	17.7869459550923	0.0040679931640625	1.087646484375
447	1.09130859375	17.8113459550307	0.00411865234375	1.090087890625
448	1.09375	17.8357459549691	0.00416839599609375	1.0931396484375
449	1.09619140625	17.8601459549075	0.00421844482421875	1.09527587890625
450	1.0986328125	17.8845459548459	0.00426544189453125	1.0980224609375
451	1.10107421875	17.9089459547843	0.0043121337890625	1.10015869140625
452	1.103515625	17.9333459547227	0.0043548583984375	1.1029052734375
453	1.10595703125	17.957745954661	0.00439849853515625	1.1053466796875
454	1.1083984375	17.9821459545994	0.00443878173828125	1.107177734375
455	1.11083984375	18.0065459545378	0.00447906494140625	1.1102294921875
456	1.11328125	18.0309459544762	0.0045166015625	1.11236572265625
457	1.11572265625	18.0553459544146	0.00455322265625	1.114501953125
458	1.1181640625	18.079745954353	0.0045892333984375	1.116943359375
459	1.12060546875	18.1041459542914	0.00462249755859375	1.119384765625
460	1.123046875	18.1285459542298	0.00465606689453125	1.12213134765625
461	1.12548828125	18.1529459541682	0.0046868896484375	1.12457275390625
462	1.1279296875	18.1773459541066	0.00471832275390625	1.126708984375
463	1.13037109375	18.201745954045	0.00474761962890625	1.1297607421875
464	1.1328125	18.2261459539834	0.004776611328125	1.13128662109375
465	1.13525390625	18.2505459539218	0.0048040771484375	1.134033203125
466	1.1376953125	18.2749459538602	0.00483062744140625	1.136474609375
467	1.14013671875	18.2993459537986	0.004857177734375	1.138916015625
468	1.142578125	18.323745953737	0.004881591796875	1.14166259765625
469	1.14501953125	18.3481459536754	0.00490692138671875	1.14410400390625
470	1.1474609375	18.3725459536138	0.0049298095703125	1.14593505859375
471	1.14990234375	18.3969459535522	0.00495361328125	1.14898681640625
472	1.15234375	18.4213459534906	0.0049755859375	1.1517333984375
473	1.15478515625	18.445745953429	0.00499786376953125	1.15386962890625
474	1.1572265625	18.4701459533674	0.00501922607421875	1.15631103515625
475	1.15966796875	18.4945459533058	0.0050396728515625	1.15814208984375
476	1.162109375	18.5189459532442	0.0050604248046875	1.16119384765625
477	1.16455078125	18.5433459531826	0.00507965087890625	1.16363525390625
478	1.1669921875	18.5677459531209	0.00509979248046875	1.16607666015625
479	1.16943359375	18.5921459530593	0.0051177978515625	1.16851806640625
480	1.171875	18.6165459529977	0.00513702392578125	1.1712646484375
481	1.17431640625	18.6409459529361	0.005155029296875	1.1737060546875
482	1.1767578125	18.6653459528745	0.0051727294921875	1.175537109375
483	1.17919921875	18.6897459528129	0.00519012451171875	1.177978515625
484	1.181640625	18.7141459527513	0.0052069091796875	1.18011474609375
485	1.18408203125	18.7385459526897	0.0052239990234375	1.182861328125
486	1.1865234375	18.7629459526281	0.0052398681640625	1.185302734375
487	1.18896484375	18.7873459525665	0.0052569580078125	1.18743896484375
488	1.19140625	18.8117459525049	0.00527191162109375	1.190185546875
489	1.19384765625	18.8361459524433	0.0052880859375	1.19232177734375
490	1.1962890625	18.8605459523817	0.0053033447265625	1.19537353515625
491	1.19873046875	18.8849459523201	0.00531829833984375	1.197509765625
492	1.201171875	18.9093459522585	0.005333251953125	1.20025634765625
493	1.19873046875	18.9337459521969	0.00531494140625	1.19842529296875
494	1.1962890625	18.9581459521353	0.00529754638671875	1.1944580078125
495	1.19384765625	18.9825459520737	0.00527862548828125	1.192626953125
496	1.19140625	19.0069459520121	0.005260009765625	1.1907958984375
497	1.18896484375	19.0313459519505	0.00524017333984375	1.18804931640625
498	1.1865234375	19.0557459518889	0.005220947265625	1.185302734375
499	1.18408203125	19.0801459518273	0.0052008056640625	1.182861328125
500	1.181640625	19.1045459517657	0.00518035888671875	1.180419921875
501	1.17919921875	19.1289459517041	0.00515960693359375	1.17828369140625
502	1.1767578125	19.1533459516425	0.00513763427734375	1.175537109375
503	1.17431640625	19.1777459515808	0.005115966796875	1.173095703125
504	1.171875	19.2021459515192	0.00509307861328125	1.17095947265625
505	1.16943359375	19.2265459514576	0.0050701904296875	1.16851806640625
506	1.1669921875	19.250945951396	0.0050457763671875	1.165771484375
507	1.16455078125	19.2753459513344	0.00502105712890625	1.16363525390625
508	1.162109375	19.2997459512728	0.004996337890625	1.16119384765625
509	1.15966796875	19.3241459512112	0.0049700927734375	1.15875244140625
510	1.1572265625	19.3485459511496	0.00494354248046875	1.1566162109375
511	1.15478515625	19.372945951088	0.0049151611328125	1.153564453125
512	1.15234375	19.3973459510264	0.0048870849609375	1.151123046875
513	1.14990234375	19.4217459509648	0.004857177734375	1.1492919921875
514	1.1474609375	19.4461459509032	0.00482696533203125	1.146240234375
515	1.14501953125	19.4705459508416	0.00479461669921875	1.143798828125
516	1.142578125	19.49494595078	0.0047613525390625	1.141357421875
517	1.14013671875	19.5193459507184	0.00472747802734375	1.138916015625
518	1.1376953125	19.5437459506568	0.00469146728515625	1.1370849609375
519	1.13525390625	19.5681459505952	0.00465423583984375	1.13372802734375
520	1.1328125	19.5925459505336	0.00461456298828125	1.13128662109375
521	1.13037109375	19.616945950472	0.004573974609375	1.12945556640625
522	1.1279296875	19.6413459504104	0.0045318603515625	1.12701416015625
523	1.12548828125	19.6657459503488	0.0044873046875	1.124267578125
524	1.123046875	19.6901459502872	0.00444061279296875	1.12213134765625
525	1.12060546875	19.7145459502256	0.0043914794921875	1.11968994140625
526	1.1181640625	19.738945950164	0.0043414306640625	1.116943359375
527	1.11572265625	19.7633459501023	0.004288330078125	1.114501953125
528	1.11328125	19.7877459500407	0.0042327880859375	1.112060546875
529	1.11083984375	19.8121459499791	0.00417572021484375	1.10992431640625
530	1.1083984375	19.8365459499175	0.0041156005859375	1.107177734375
531	1.10595703125	19.8609459498559	0.0040557861328125	1.104736328125
532	1.103515625	19.8853459497943	0.0039923095703125	1.102294921875
533	1.10107421875	19.9097459497327	0.00392852783203125	1.09954833984375
534	1.0986328125	19.9341459496711	0.0038629150390625	1.09710693359375
535	1.09619140625	19.9585459496095	0.00379669189453125	1.09527587890625
536	1.09375	19.9829459495479	0.00373077392578125	1.09283447265625
537	1.09130859375	20.0073459494863	0.003662109375	1.0906982421875
538	1.0888671875	20.0317459494247	0.00359527587890625	1.0882568359375
539	1.08642578125	20.0561459493631	0.00352569580078125	1.08612060546875
540	1.083984375	20.0805459493015	0.0034600830078125	1.0833740234375
541	1.08154296875	20.1049459492399	0.00339111328125	1.08062744140625
542	1.0791015625	20.1293459491783	0.003323974609375	1.07818603515625
543	1.07666015625	20.1537459491167	0.00325653076171875	1.07574462890625
544	1.07421875	20.1781459490551	0.00318939208984375	1.072998046875
545	1.07177734375	20.2025459489935	0.00312591552734375	1.07086181640625
546	1.0693359375	20.2269459489319	0.0030560302734375	1.06903076171875
547	1.06689453125	20.2513459488703	0.00299407958984375	1.06597900390625
548	1.064453125	20.2757459488087	0.0029266357421875	1.06353759765625
549	1.06201171875	20.3001459487471	0.00286651611328125	1.06048583984375
550	1.0595703125	20.3245459486855	0.002801513671875	1.0589599609375
551	1.05712890625	20.3489459486239	0.00273834228515625	1.05682373046875
552	1.0546875	20.3733459485622	0.00267669677734375	1.053466796875
553	1.05224609375	20.3977459485006	0.00261260986328125	1.051025390625
554	1.0498046875	20.422145948439	0.00255615234375	1.0491943359375
555	1.04736328125	20.4465459483774	0.00249114990234375	1.046142578125
556	1.044921875	20.4709459483158	0.0024359130859375	1.04400634765625
557	1.04248046875	20.4953459482542	0.00237335205078125	1.04156494140625
558	1.0400390625	20.5197459481926	0.0023187255859375	1.038818359375
559	1.03759765625	20.544145948131	0.002259521484375	1.0369873046875
560	1.03515625	20.5685459480694	0.00220123291015625	1.03424072265625
561	1.03271484375	20.5929459480078	0.0021484375	1.031494140625
562	1.0302734375	20.6173459479462	0.00208892822265625	1.02874755859375
563	1.02783203125	20.6417459478846	0.00204071044921875	1.026611328125
564	1.025390625	20.666145947823	0.00197845458984375	1.024169921875
565	1.02294921875	20.6905459477614	0.0019317626953125	1.02203369140625
566	1.0205078125	20.7149459476998	0.001875	1.01898193359375
567	1.01806640625	20.7393459476382	0.00182586669921875	1.01715087890625
568	1.015625	20.7637459475766	0.001773681640625	1.01470947265625
569	1.01318359375	20.788145947515	0.00171905517578125	1.011962890625
570	1.0107421875	20.8125459474534	0.0016748046875	1.009521484375
571	1.00830078125	20.8369459473918	0.00161895751953125	1.007080078125
572	1.005859375	20.8613459473302	0.0015802001953125	1.004638671875
573	1.00341796875	20.8857459472686	0.00152313232421875	1.002197265625
574	1.0009765625	20.910145947207	0.00148345947265625	1.00067138671875
575	0.99853515625	20.9345459471454	0.00143341064453125	0.99761962890625
576	0.99609375	20.9589459470837	0.00138916015625	0.9954833984375
577	0.99365234375	20.9833459470221	0.00134613037109375	0.9930419921875
578	0.9912109375	21.0077459469605	0.0012957763671875	0.989990234375
579	0.98876953125	21.0321459468989	0.00126068115234375	0.98724365234375
580	0.986328125	21.0565459468373	0.001207275390625	0.985107421875
581	0.98388671875	21.0809459467757	0.00117767333984375	0.9832763671875
582	0.9814453125	21.1053459467141	0.0011248779296875	0.9808349609375
583	0.97900390625	21.1297459466525	0.0010906982421875	0.977783203125
584	0.9765625	21.1541459465909	0.0010479736328125	0.97564697265625
585	0.97412109375	21.1785459465293	0.0010076904296875	0.97320556640625
586	0.9716796875	21.2029459464677	0.00097320556640625	0.97076416015625
587	0.96923828125	21.2273459464061	0.00092498779296875	0.96832275390625
588	0.966796875	21.2517459463445	0.00089996337890625	0.965576171875
589	0.96435546875	21.2761459462829	0.0008502197265625	0.96343994140625
590	0.9619140625	21.3005459462213	0.00082672119140625	0.960693359375
591	0.95947265625	21.3249459461597	0.00077880859375	0.95855712890625
592	0.95703125	21.3493459460981	0.00074920654296875	0.95611572265625
593	0.95458984375	21.3737459460365	0.000714111328125	0.9539794921875
594	0.9521484375	21.3981459459749	0.00067657470703125	0.95123291015625
595	0.94970703125	21.4225459459133	0.0006512451171875	0.94879150390625
596	0.947265625	21.4469459458517	0.00060516357421875	0.94635009765625
597	0.94482421875	21.4713459457901	0.00058929443359375	0.943603515625
598	0.9423828125	21.4957459457285	0.0005419921875	0.9417724609375
599	0.93994140625	21.5201459456669	0.0005267333984375	0.93902587890625
600	0.9375	21.5445459456053	0.00048431396484375	0.936279296875
601	0.93505859375	21.5689459455436	0.000457061767578125	0.93414306640625
602	0.9326171875	21.593345945482	0.000430511474609375	0.9320068359375
603	0.93017578125	21.6177459454204	0.00039447021484375	0.92926025390625
604	0.927734375	21.6421459453588	0.00037908935546875	0.92681884765625
605	0.92529296875	21.6665459452972	0.0003349609375	0.92498779296875
606	0.9228515625	21.6909459452356	0.000326324462890625	0.921630859375
607	0.92041015625	21.715345945174	0.000284759521484375	0.91949462890625
608	0.91796875	21.7397459451124	0.0002735595703125	0.916748046875
609	0.91552734375	21.7641459450508	0.00023895263671875	0.9149169921875
610	0.9130859375	21.7885459449892	0.000213958740234375	0.911865234375
611	0.91064453125	21.8129459449276	0.00019598388671875	0.9100341796875
612	0.908203125	21.837345944866	0.00016168212890625	0.90728759765625
613	0.90576171875	21.8617459448044	0.00015435791015625	0.90484619140625
614	0.9033203125	21.8861459447428	0.000109771728515625	0.902099609375
615	0.90087890625	21.9105459446812	0.000108306884765625	0.899658203125
616	0.8984375	21.9349459446196	7.0037841796875E-05	0.8978271484375
617	0.89599609375	21.959345944558	6.0577392578125E-05	0.894775390625
618	0.8935546875	21.9837459444964	3.338623046875E-05	0.89263916015625
619	0.89111328125	22.0081459444348	7.8125E-06	0.8905029296875
620	0.888671875	22.0325459443732	-2.35900878906251E-06	0.8880615234375
621	0.88623046875	22.0569459443116	-3.94287109375E-05	0.8856201171875
622	0.8837890625	22.08134594425	-3.814697265625E-05	0.882568359375
623	0.88134765625	22.1057459441884	-8.19091796875E-05	0.880126953125
624	0.87890625	22.1301459441268	-7.9376220703125E-05	0.8782958984375
625	0.87646484375	22.1545459440651	-0.00011328125	0.87554931640625
626	0.8740234375	22.1789459440035	-0.000123138427734375	0.872802734375
627	0.87158203125	22.2033459439419	-0.000145538330078125	0.87005615234375
628	0.869140625	22.2277459438803	-0.000172149658203125	0.8685302734375
629	0.86669921875	22.2521459438187	-0.000174072265625	0.86578369140625
630	0.8642578125	22.2765459437571	-0.0002117919921875	0.8636474609375
631	0.86181640625	22.3009459436955	-0.000204681396484375	0.8612060546875
632	0.859375	22.3253459436339	-0.000247802734375	0.8587646484375
633	0.85693359375	22.3497459435723	-0.0002425537109375	0.855712890625
634	0.8544921875	22.3741459435107	-0.00026971435546875	0.85357666015625
635	0.85205078125	22.3985459434491	-0.00028057861328125	0.850830078125
636	0.849609375	22.4229459433875	-0.0002933349609375	0.84869384765625
637	0.84716796875	22.4473459433259	-0.000321868896484375	0.8465576171875
638	0.8447265625	22.4717459432643	-0.000316436767578125	0.84381103515625
639	0.84228515625	22.4961459432027	-0.00035284423828125	0.8416748046875
640	0.83984375	22.5205459431411	-0.000341278076171875	0.83892822265625
641	0.83740234375	22.5449459430795	-0.00038067626953125	0.83648681640625
642	0.8349609375	22.5693459430179	-0.000375701904296875	0.833740234375
643	0.83251953125	22.5937459429563	-0.00039727783203125	0.8319091796875
644	0.830078125	22.6181459428947	-0.000411102294921875	0.8294677734375
645	0.82763671875	22.6425459428331	-0.000415618896484375	0.82672119140625
646	0.8251953125	22.6669459427715	-0.000446807861328125	0.82489013671875
647	0.82275390625	22.6913459427099	-0.00043438720703125	0.82244873046875
648	0.8203125	22.7157459426483	-0.000472198486328125	0.819091796875
649	0.81787109375	22.7401459425867	-0.00045733642578125	0.81695556640625
650	0.8154296875	22.764545942525	-0.00049285888671875	0.8148193359375
651	0.81298828125	22.7889459424634	-0.00048919677734375	0.811767578125
652	0.810546875	22.8133459424018	-0.00050811767578125	0.8099365234375
653	0.80810546875	22.8377459423402	-0.000523681640625	0.8074951171875
654	0.8056640625	22.8621459422786	-0.00052276611328125	0.80474853515625
655	0.80322265625	22.886545942217	-0.0005572509765625	0.80230712890625
656	0.80078125	22.9109459421554	-0.0005401611328125	0.8001708984375
657	0.79833984375	22.9353459420938	-0.0005780029296875	0.79803466796875
658	0.7958984375	22.9597459420322	-0.0005621337890625	0.7952880859375
659	0.79345703125	22.9841459419706	-0.00059539794921875	0.7928466796875
660	0.791015625	23.008545941909	-0.000595703125	0.789794921875
661	0.78857421875	23.0329459418474	-0.0006048583984375	0.78826904296875
662	0.7861328125	23.0573459417858	-0.00062408447265625	0.7855224609375
663	0.78369140625	23.0817459417242	-0.00061614990234375	0.7830810546875
664	0.78125	23.1061459416626	-0.00065185546875	0.7806396484375
665	0.77880859375	23.130545941601	-0.00063140869140625	0.77789306640625
666	0.7763671875	23.1549459415394	-0.000667724609375	0.77545166015625
667	0.77392578125	23.1793459414778	-0.00065093994140625	0.77301025390625
668	0.771484375	23.2037459414162	-0.0006781005859375	0.7708740234375
669	0.76904296875	23.2281459413546	-0.00068206787109375	0.7684326171875
670	0.7666015625	23.252545941293	-0.0006842041015625	0.76629638671875
671	0.76416015625	23.2769459412314	-0.0007061767578125	0.76324462890625
672	0.76171875	23.3013459411698	-0.00069091796875	0.760498046875
673	0.75927734375	23.3257459411082	-0.00072906494140625	0.75836181640625
674	0.7568359375	23.3501459410465	-0.00070587158203125	0.75592041015625
675	0.75439453125	23.3745459409849	-0.00073883056640625	0.75439453125
676	0.751953125	23.3989459409233	-0.00072540283203125	0.7513427734375
677	0.74951171875	23.4233459408617	-0.00074615478515625	0.7493896484375
678	0.7470703125	23.4477459408001	-0.0007562255859375	0.746978759765625
679	0.74462890625	23.4721459407385	-0.00074981689453125	0.7445068359375
680	0.7421875	23.4965459406769	-0.0007757568359375	0.742095947265625
681	0.73974609375	23.5209459406153	-0.00075592041015625	0.739654541015625
682	0.7373046875	23.5453459405537	-0.00079498291015625	0.73724365234375
683	0.73486328125	23.5697459404921	-0.00076995849609375	0.73468017578125
684	0.732421875	23.5941459404305	-0.00079986572265625	0.7322998046875
685	0.72998046875	23.6185459403689	-0.000791015625	0.729888916015625
686	0.7275390625	23.6429459403073	-0.0008056640625	0.72747802734375
687	0.72509765625	23.6673459402457	-0.0008197021484375	0.725006103515625
688	0.72265625	23.6917459401841	-0.00080810546875	0.72259521484375
689	0.72021484375	23.7161459401225	-0.000838623046875	0.720184326171875
690	0.7177734375	23.7405459400609	-0.0008154296875	0.71771240234375
691	0.71533203125	23.7649459399993	-0.0008563232421875	0.71533203125
692	0.712890625	23.7893459399377	-0.00083221435546875	0.7127685546875
693	0.71044921875	23.8137459398761	-0.00085845947265625	0.710296630859375
694	0.7080078125	23.8381459398145	-0.00085357666015625	0.707977294921875
695	0.70556640625	23.8625459397529	-0.00086181640625	0.705474853515625
696	0.703125	23.8869459396913	-0.00088043212890625	0.703094482421875
697	0.70068359375	23.9113459396297	-0.00086456298828125	0.70062255859375
698	0.6982421875	23.9357459395681	-0.00089569091796875	0.698211669921875
699	0.69580078125	23.9601459395064	-0.000870361328125	0.695709228515625
700	0.693359375	23.9845459394448	-0.000908203125	0.69329833984375
701	0.69091796875	24.0089459393832	-0.0008868408203125	0.69091796875
702	0.6884765625	24.0333459393216	-0.00090484619140625	0.688446044921875
703	0.68603515625	24.05774593926	-0.00090545654296875	0.686065673828125
704	0.68359375	24.0821459391984	-0.000906982421875	0.683563232421875
705	0.68115234375	24.1065459391368	-0.000928955078125	0.681121826171875
706	0.6787109375	24.1309459390752	-0.000908203125	0.67864990234375
707	0.67626953125	24.1553459390136	-0.00094024658203125	0.67633056640625
708	0.673828125	24.179745938952	-0.00091094970703125	0.673828125
709	0.67138671875	24.2041459388904	-0.00094757080078125	0.67144775390625
710	0.6689453125	24.2285459388288	-0.00092926025390625	0.66888427734375
711	0.66650390625	24.2529459387672	-0.00094390869140625	0.666534423828125
712	0.6640625	24.2773459387056	-0.00094818115234375	0.664093017578125
713	0.66162109375	24.301745938644	-0.0009429931640625	0.66162109375
714	0.6591796875	24.3261459385824	-0.00096893310546875	0.659210205078125
715	0.65673828125	24.3505459385208	-0.00094329833984375	0.65673828125
716	0.654296875	24.3749459384592	-0.00097747802734375	0.654388427734375
717	0.65185546875	24.3993459383976	-0.00094940185546875	0.65191650390625
718	0.6494140625	24.423745938336	-0.00098114013671875	0.649444580078125
719	0.64697265625	24.4481459382744	-0.00096893310546875	0.647003173828125
720	0.64453125	24.4725459382128	-0.0009771728515625	0.644500732421875
721	0.64208984375	24.4969459381512	-0.0009869384765625	0.642120361328125
722	0.6396484375	24.5213459380896	-0.00097686767578125	0.639678955078125
723	0.63720703125	24.5457459380279	-0.0010076904296875	0.637298583984375
724	0.634765625	24.5701459379663	-0.00097930908203125	0.63482666015625
725	0.63232421875	24.5945459379047	-0.00101348876953125	0.63232421875
726	0.6298828125	24.6189459378431	-0.000986328125	0.62994384765625
727	0.62744140625	24.6433459377815	-0.00101470947265625	0.62750244140625
728	0.625	24.6677459377199	-0.0010076904296875	0.625030517578125
729	0.62255859375	24.6921459376583	-0.001009521484375	0.62261962890625
730	0.6201171875	24.7165459375967	-0.00102386474609375	0.620147705078125
731	0.61767578125	24.7409459375351	-0.00100799560546875	0.617706298828125
732	0.615234375	24.7653459374735	-0.00104156494140625	0.6153564453125
733	0.61279296875	24.7897459374119	-0.00100921630859375	0.612823486328125
734	0.6103515625	24.8141459373503	-0.001041259765625	0.610382080078125
735	0.60791015625	24.8385459372887	-0.00101654052734375	0.60797119140625
736	0.60546875	24.8629459372271	-0.00103973388671875	0.60546875
737	0.60302734375	24.8873459371655	-0.00103729248046875	0.60308837890625
738	0.6005859375	24.9117459371039	-0.00103240966796875	0.60064697265625
739	0.59814453125	24.9361459370423	-0.00104949951171875	0.5982666015625
740	0.595703125	24.9605459369807	-0.00102783203125	0.595733642578125
741	0.59326171875	24.9849459369191	-0.001063232421875	0.59332275390625
742	0.5908203125	25.0093459368575	-0.0010296630859375	0.59088134765625
743	0.58837890625	25.0337459367959	-0.0010601806640625	0.5885009765625
744	0.5859375	25.0581459367343	-0.00103912353515625	0.585968017578125
745	0.58349609375	25.0825459366727	-0.00105621337890625	0.58355712890625
746	0.5810546875	25.1069459366111	-0.00106048583984375	0.58111572265625
747	0.57861328125	25.1313459365495	-0.00105072021484375	0.57861328125
748	0.576171875	25.1557459364878	-0.001072998046875	0.576263427734375
749	0.57373046875	25.1801459364262	-0.00104736328125	0.573760986328125
750	0.5712890625	25.2045459363646	-0.00108551025390625	0.5714111328125
751	0.56884765625	25.228945936303	-0.001053466796875	0.568878173828125
752	0.56640625	25.2533459362414	-0.00108062744140625	0.56640625
753	0.56396484375	25.2777459361798	-0.0010650634765625	0.564117431640625
754	0.5615234375	25.3021459361182	-0.001077880859375	0.561553955078125
755	0.55908203125	25.3265459360566	-0.001087646484375	0.55914306640625
756	0.556640625	25.350945935995	-0.00107208251953125	0.55670166015625
757	0.55419921875	25.3753459359334	-0.0010986328125	0.5543212890625
758	0.5517578125	25.3997459358718	-0.00107025146484375	0.551910400390625
759	0.54931640625	25.4241459358102	-0.0011083984375	0.549468994140625
760	0.546875	25.4485459357486	-0.0010772705078125	0.546966552734375
761	0.54443359375	25.472945935687	-0.00110137939453125	0.544464111328125
762	0.5419921875	25.4973459356254	-0.00108978271484375	0.54205322265625
763	0.53955078125	25.5217459355638	-0.0010968017578125	0.5396728515625
764	0.537109375	25.5461459355022	-0.0011114501953125	0.537200927734375
765	0.53466796875	25.5705459354406	-0.00109100341796875	0.534759521484375
766	0.5322265625	25.594945935379	-0.0011199951171875	0.53240966796875
767	0.52978515625	25.6193459353174	-0.00108795166015625	0.529876708984375
768	0.52734375	25.6437459352558	-0.0011248779296875	0.527435302734375
769	0.52490234375	25.6681459351942	-0.00109649658203125	0.524932861328125
770	0.5224609375	25.6925459351326	-0.00111419677734375	0.5225830078125
771	0.52001953125	25.716945935071	-0.0011090087890625	0.520172119140625
772	0.517578125	25.7413459350093	-0.00110687255859375	0.51763916015625
773	0.51513671875	25.7657459349477	-0.001126708984375	0.515289306640625
774	0.5126953125	25.7901459348861	-0.00110015869140625	0.512786865234375
775	0.51025390625	25.8145459348245	-0.00113128662109375	0.51043701171875
776	0.5078125	25.8389459347629	-0.00109832763671875	0.507904052734375
777	0.50537109375	25.8633459347013	-0.00113433837890625	0.5054931640625
778	0.5029296875	25.8877459346397	-0.0011102294921875	0.503021240234375
779	0.50048828125	25.9121459345781	-0.00112335205078125	0.500640869140625
780	0.498046875	25.9365459345165	-0.001123046875	0.498138427734375
781	0.49560546875	25.9609459344549	-0.00111541748046875	0.495697021484375
782	0.4931640625	25.9853459343933	-0.00113983154296875	0.49334716796875
783	0.49072265625	26.0097459343317	-0.00111053466796875	0.4908447265625
784	0.48828125	26.0341459342701	-0.0011431884765625	0.488433837890625
785	0.48583984375	26.0585459342085	-0.00111083984375	0.4859619140625
786	0.4833984375	26.0829459341469	-0.00114288330078125	0.4835205078125
787	0.48095703125	26.1073459340853	-0.00112457275390625	0.481048583984375
788	0.478515625	26.1317459340237	-0.00113250732421875	0.478668212890625
789	0.47607421875	26.1561459339621	-0.00113861083984375	0.47625732421875
790	0.4736328125	26.1805459339005	-0.001126708984375	0.4737548828125
791	0.47119140625	26.2049459338389	-0.00115447998046875	0.471343994140625
792	0.46875	26.2293459337773	-0.00112274169921875	0.468902587890625
793	0.46630859375	26.2537459337157	-0.00115631103515625	0.466400146484375
794	0.4638671875	26.2781459336541	-0.00112396240234375	0.464019775390625
795	0.46142578125	26.3025459335925	-0.0011529541015625	0.461517333984375
796	0.458984375	26.3269459335309	-0.0011407470703125	0.4591064453125
797	0.45654296875	26.3513459334692	-0.0011419677734375	0.4566650390625
798	0.4541015625	26.3757459334076	-0.00115264892578125	0.454193115234375
799	0.45166015625	26.400145933346	-0.00113372802734375	0.45172119140625
800	0.44921875	26.4245459332844	-0.00116668701171875	0.44940185546875
801	0.44677734375	26.4489459332228	-0.00113128662109375	0.4468994140625
802	0.4443359375	26.4733459331612	-0.001163330078125	0.4444580078125
803	0.44189453125	26.4977459330996	-0.001134033203125	0.441986083984375
804	0.439453125	26.522145933038	-0.00115692138671875	0.439605712890625
805	0.43701171875	26.5465459329764	-0.00115020751953125	0.437164306640625
806	0.4345703125	26.5709459329148	-0.00114471435546875	0.4346923828125
807	0.43212890625	26.5953459328532	-0.00115966796875	0.432281494140625
808	0.4296875	26.6197459327916	-0.00113616943359375	0.4298095703125
809	0.42724609375	26.64414593273	-0.001170654296875	0.4273681640625
810	0.4248046875	26.6685459326684	-0.00113433837890625	0.424896240234375
811	0.42236328125	26.6929459326068	-0.00116485595703125	0.422515869140625
812	0.419921875	26.7173459325452	-0.0011395263671875	0.42010498046875
813	0.41748046875	26.7417459324836	-0.00115814208984375	0.417633056640625
814	0.4150390625	26.766145932422	-0.00115753173828125	0.415252685546875
815	0.41259765625	26.7905459323604	-0.00114715576171875	0.412750244140625
816	0.41015625	26.8149459322988	-0.0011676025390625	0.410308837890625
817	0.40771484375	26.8393459322372	-0.001141357421875	0.4078369140625
818	0.4052734375	26.8637459321756	-0.001177978515625	0.40545654296875
819	0.40283203125	26.888145932114	-0.0011431884765625	0.4029541015625
820	0.400390625	26.9125459320524	-0.00117095947265625	0.400543212890625
821	0.39794921875	26.9369459319907	-0.001151123046875	0.398162841796875
822	0.3955078125	26.9613459319291	-0.00116363525390625	0.39569091796875
823	0.39306640625	26.9857459318675	-0.00117034912109375	0.393218994140625
824	0.390625	27.0101459318059	-0.0011541748046875	0.390716552734375
825	0.38818359375	27.0345459317443	-0.00117950439453125	0.3883056640625
826	0.3857421875	27.0589459316827	-0.00114959716796875	0.385894775390625
827	0.38330078125	27.0833459316211	-0.001187744140625	0.383514404296875
828	0.380859375	27.1077459315595	-0.001153564453125	0.380950927734375
829	0.37841796875	27.1321459314979	-0.0011785888671875	0.378570556640625
830	0.3759765625	27.1565459314363	-0.0011639404296875	0.376129150390625
831	0.37353515625	27.1809459313747	-0.001170654296875	0.37371826171875
832	0.37109375	27.2053459313131	-0.00118194580078125	0.37127685546875
833	0.36865234375	27.2297459312515	-0.0011602783203125	0.3687744140625
834	0.3662109375	27.2541459311899	-0.00118743896484375	0.366455078125
835	0.36376953125	27.2785459311283	-0.0011541748046875	0.36395263671875
836	0.361328125	27.3029459310667	-0.00118988037109375	0.361541748046875
837	0.35888671875	27.3273459310051	-0.001158447265625	0.3590087890625
838	0.3564453125	27.3517459309435	-0.0011773681640625	0.356536865234375
839	0.35400390625	27.3761459308819	-0.0011676025390625	0.35418701171875
840	0.3515625	27.4005459308203	-0.00116729736328125	0.351715087890625
841	0.34912109375	27.4249459307587	-0.001182861328125	0.34930419921875
842	0.3466796875	27.4493459306971	-0.0011572265625	0.3468017578125
843	0.34423828125	27.4737459306355	-0.00118804931640625	0.344390869140625
844	0.341796875	27.4981459305739	-0.00115264892578125	0.3419189453125
845	0.33935546875	27.5225459305123	-0.00118896484375	0.33953857421875
846	0.3369140625	27.5469459304506	-0.0011614990234375	0.337066650390625
847	0.33447265625	27.571345930389	-0.00117645263671875	0.334625244140625
848	0.33203125	27.5957459303274	-0.00117431640625	0.332183837890625
849	0.32958984375	27.6201459302658	-0.00116943359375	0.329742431640625
850	0.3271484375	27.6445459302042	-0.00119171142578125	0.327301025390625
851	0.32470703125	27.6689459301426	-0.00116302490234375	0.32489013671875
852	0.322265625	27.693345930081	-0.0011956787109375	0.32244873046875
853	0.31982421875	27.7177459300194	-0.00116119384765625	0.3199462890625
854	0.3173828125	27.7421459299578	-0.001195068359375	0.31756591796875
855	0.31494140625	27.7665459298962	-0.00117401123046875	0.3150634765625
856	0.3125	27.7909459298346	-0.00118377685546875	0.312591552734375
857	0.31005859375	27.815345929773	-0.00118682861328125	0.3101806640625
858	0.3076171875	27.8397459297114	-0.00117523193359375	0.3077392578125
859	0.30517578125	27.8641459296498	-0.00120208740234375	0.305328369140625
860	0.302734375	27.8885459295882	-0.0011700439453125	0.302886962890625
861	0.30029296875	27.9129459295266	-0.00120361328125	0.300506591796875
862	0.2978515625	27.937345929465	-0.00116943359375	0.2979736328125
863	0.29541015625	27.9617459294034	-0.001199951171875	0.2955322265625
864	0.29296875	27.9861459293418	-0.00118377685546875	0.29315185546875
865	0.29052734375	28.0105459292802	-0.001187744140625	0.290679931640625
866	0.2880859375	28.0349459292186	-0.0011956787109375	0.288238525390625
867	0.28564453125	28.059345929157	-0.0011785888671875	0.285797119140625
868	0.283203125	28.0837459290954	-0.00120819091796875	0.283416748046875
869	0.28076171875	28.1081459290338	-0.001173095703125	0.28094482421875
870	0.2783203125	28.1325459289721	-0.001204833984375	0.278533935546875
871	0.27587890625	28.1569459289105	-0.0011724853515625	0.276031494140625
872	0.2734375	28.1813459288489	-0.00119842529296875	0.27362060546875
873	0.27099609375	28.2057459287873	-0.0011883544921875	0.27117919921875
874	0.2685546875	28.2301459287257	-0.00118499755859375	0.268707275390625
875	0.26611328125	28.2545459286641	-0.00119781494140625	0.266326904296875
876	0.263671875	28.2789459286025	-0.00117584228515625	0.26373291015625
877	0.26123046875	28.3033459285409	-0.00120819091796875	0.261444091796875
878	0.2587890625	28.3277459284793	-0.00117218017578125	0.258941650390625
879	0.25634765625	28.3521459284177	-0.0012030029296875	0.256561279296875
880	0.25390625	28.3765459283561	-0.0011749267578125	0.254058837890625
881	0.25146484375	28.4009459282945	-0.00119537353515625	0.251678466796875
882	0.2490234375	28.4253459282329	-0.00119171142578125	0.249176025390625
883	0.24658203125	28.4497459281713	-0.00118255615234375	0.246826171875
884	0.244140625	28.4741459281097	-0.0012005615234375	0.244293212890625
885	0.24169921875	28.4985459280481	-0.00117431640625	0.24188232421875
886	0.2392578125	28.5229459279865	-0.001209716796875	0.239471435546875
887	0.23681640625	28.5473459279249	-0.001173095703125	0.236968994140625
888	0.234375	28.5717459278633	-0.00120208740234375	0.23455810546875
889	0.23193359375	28.5961459278017	-0.0011798095703125	0.232086181640625
890	0.2294921875	28.6205459277401	-0.001195068359375	0.229705810546875
891	0.22705078125	28.6449459276785	-0.0011981201171875	0.2271728515625
892	0.224609375	28.6693459276169	-0.00118408203125	0.2247314453125
893	0.22216796875	28.6937459275553	-0.00120697021484375	0.22235107421875
894	0.2197265625	28.7181459274937	-0.0011773681640625	0.2198486328125
895	0.21728515625	28.742545927432	-0.00121490478515625	0.21746826171875
896	0.21484375	28.7669459273704	-0.00117645263671875	0.21502685546875
897	0.21240234375	28.7913459273088	-0.0011932373046875	0.2125244140625
898	0.2099609375	28.8157459272472	-0.0011663818359375	0.210174560546875
899	0.20751953125	28.8401459271856	-0.00116363525390625	0.20770263671875
900	0.205078125	28.864545927124	-0.0011639404296875	0.20526123046875
901	0.20263671875	28.8889459270624	-0.00113677978515625	0.202850341796875
902	0.2001953125	28.9133459270008	-0.00115447998046875	0.20037841796875
903	0.19775390625	28.9377459269392	-0.00111724853515625	0.197906494140625
904	0.1953125	28.9621459268776	-0.00114532470703125	0.19549560546875
905	0.19287109375	28.986545926816	-0.0011102294921875	0.1929931640625
906	0.1904296875	29.0109459267544	-0.0011236572265625	0.1905517578125
907	0.18798828125	29.0353459266928	-0.00110992431640625	0.188140869140625
908	0.185546875	29.0597459266312	-0.001107177734375	0.1856689453125
909	0.18310546875	29.0841459265696	-0.00111785888671875	0.183319091796875
910	0.1806640625	29.108545926508	-0.00109222412109375	0.180816650390625
911	0.17822265625	29.1329459264464	-0.00111602783203125	0.178436279296875
912	0.17578125	29.1573459263848	-0.00108184814453125	0.1759033203125
913	0.17333984375	29.1817459263232	-0.00111175537109375	0.17352294921875
914	0.1708984375	29.2061459262616	-0.0010845947265625	0.17108154296875
915	0.16845703125	29.2305459262	-0.00109649658203125	0.168609619140625
916	0.166015625	29.2549459261384	-0.00109130859375	0.16619873046875
917	0.16357421875	29.2793459260768	-0.00108551025390625	0.16375732421875
918	0.1611328125	29.3037459260152	-0.0011041259765625	0.16131591796875
919	0.15869140625	29.3281459259535	-0.0010772705078125	0.158843994140625
920	0.15625	29.3525459258919	-0.0011053466796875	0.156494140625
921	0.15380859375	29.3769459258303	-0.00107391357421875	0.15399169921875
922	0.1513671875	29.4013459257687	-0.0011041259765625	0.151580810546875
923	0.14892578125	29.4257459257071	-0.0010845947265625	0.149078369140625
924	0.146484375	29.4501459256455	-0.00109344482421875	0.146636962890625
925	0.14404296875	29.4745459255839	-0.00109649658203125	0.1441650390625
926	0.1416015625	29.4989459255223	-0.00108734130859375	0.1417236328125
927	0.13916015625	29.5233459254607	-0.00111175537109375	0.139373779296875
928	0.13671875	29.5477459253991	-0.00108306884765625	0.136810302734375
929	0.13427734375	29.5721459253375	-0.00111358642578125	0.134521484375
930	0.1318359375	29.5965459252759	-0.001083984375	0.132049560546875
931	0.12939453125	29.6209459252143	-0.001112060546875	0.129638671875
932	0.126953125	29.6453459251527	-0.00109832763671875	0.127166748046875
933	0.12451171875	29.6697459250911	-0.0011016845703125	0.124725341796875
934	0.1220703125	29.6941459250295	-0.00110931396484375	0.122283935546875
935	0.11962890625	29.7185459249679	-0.0010943603515625	0.1197509765625
936	0.1171875	29.7429459249063	-0.0011224365234375	0.117401123046875
937	0.11474609375	29.7673459248447	-0.0010906982421875	0.11492919921875
938	0.1123046875	29.7917459247831	-0.0011199951171875	0.112518310546875
939	0.10986328125	29.8161459247215	-0.00109130859375	0.110015869140625
940	0.107421875	29.8405459246599	-0.00111419677734375	0.107635498046875
941	0.10498046875	29.8649459245983	-0.0011053466796875	0.105133056640625
942	0.1025390625	29.8893459245367	-0.00110198974609375	0.10272216796875
943	0.10009765625	29.9137459244751	-0.0011138916015625	0.100311279296875
944	0.09765625	29.9381459244134	-0.00109375	0.09783935546875
945	0.09521484375	29.9625459243518	-0.001123046875	0.09539794921875
946	0.0927734375	29.9869459242902	-0.00108978271484375	0.092926025390625
947	0.09033203125	30.0113459242286	-0.00111724853515625	0.09051513671875
948	0.087890625	30.035745924167	-0.0010919189453125	0.088104248046875
949	0.08544921875	30.0601459241054	-0.001109619140625	0.08563232421875
950	0.0830078125	30.0845459240438	-0.001107177734375	0.083160400390625
951	0.08056640625	30.1089459239822	-0.0010986328125	0.080718994140625
952	0.078125	30.1333459239206	-0.00111541748046875	0.07830810546875
953	0.07568359375	30.157745923859	-0.0010919189453125	0.075897216796875
954	0.0732421875	30.1821459237974	-0.0011248779296875	0.073455810546875
955	0.07080078125	30.2065459237358	-0.00109222412109375	0.07098388671875
956	0.068359375	30.2309459236742	-0.00111846923828125	0.068572998046875
957	0.06591796875	30.2553459236126	-0.00109893798828125	0.066070556640625
958	0.0634765625	30.279745923551	-0.00111297607421875	0.06365966796875
959	0.06103515625	30.3041459234894	-0.001116943359375	0.061248779296875
960	0.05859375	30.3285459234278	-0.00110382080078125	0.05877685546875
961	0.05615234375	30.3529459233662	-0.00112518310546875	0.056365966796875
962	0.0537109375	30.3773459233046	-0.00109832763671875	0.053924560546875
963	0.05126953125	30.401745923243	-0.0011334228515625	0.051483154296875
964	0.048828125	30.4261459231814	-0.0011016845703125	0.0489654541015625
965	0.04638671875	30.4505459231198	-0.00112518310546875	0.046533203125
966	0.0439453125	30.4749459230582	-0.00110992431640625	0.0441192626953125
967	0.04150390625	30.4993459229966	-0.00111846923828125	0.0416717529296875
968	0.0390625	30.5237459229349	-0.001126708984375	0.0392242431640625
969	0.03662109375	30.5481459228733	-0.0011090087890625	0.0367645263671875
970	0.0341796875	30.5725459228117	-0.0011334228515625	0.0343658447265625
971	0.03173828125	30.5969459227501	-0.001103515625	0.0318695068359375
972	0.029296875	30.6213459226885	-0.0011370849609375	0.029510498046875
973	0.02685546875	30.6457459226269	-0.001107177734375	0.027008056640625
974	0.0244140625	30.6701459225653	-0.00112579345703125	0.024542236328125
975	0.02197265625	30.6945459225037	-0.00111572265625	0.022137451171875
976	0.01953125	30.7189459224421	-0.001116943359375	0.0196746826171875
977	0.01708984375	30.7433459223805	-0.00113006591796875	0.017254638671875
978	0.0146484375	30.7677459223189	-0.001107177734375	0.01480712890625
979	0.01220703125	30.7921459222573	-0.00113372802734375	0.0124053955078125
980	0.009765625	30.8165459221957	-0.00110198974609375	0.00990905761718749
981	0.00732421875	30.8409459221341	-0.00113433837890625	0.0075225830078125
982	0.0048828125	30.8653459220725	-0.00110809326171875	0.0050323486328125
983	0.00244140625	30.8897459220109	-0.001121826171875	0.00257263183593751
984	0	30.9141459219493	-0.00111785888671875	0.000173950195312494
985	0.00244140625	30.9385459218877	-0.00111236572265625	0.002593994140625
986	0.0048828125	30.9629459218261	-0.0011297607421875	0.00507507324218751
