Index	Potential applied (V)	Time (s)	WE(1).Current (A)	WE(1).Potential (V)
1	0.00244140625	295.625292253618	-5.1422119140625E-05	0.002593994140625
2	0.0048828125	295.649692253556	-5.224609375E-05	0.00502624511718749
3	0.00732421875	295.674092253495	-5.0628662109375E-05	0.0074737548828125
4	0.009765625	295.698492253433	-5.1422119140625E-05	0.00991210937500001
5	0.01220703125	295.722892253371	-5.0140380859375E-05	0.012347412109375
6	0.0146484375	295.74729225331	-5.0567626953125E-05	0.0148162841796875
7	0.01708984375	295.771692253248	-5.0262451171875E-05	0.01722412109375
8	0.01953125	295.796092253187	-4.9652099609375E-05	0.0196929931640625
9	0.02197265625	295.820492253125	-5.0048828125E-05	0.0221282958984375
10	0.0244140625	295.844892253063	-4.876708984375E-05	0.024560546875
11	0.02685546875	295.869292253002	-4.98046875E-05	0.027008056640625
12	0.029296875	295.89369225294	-4.832763671875E-05	0.029437255859375
13	0.03173828125	295.918092252879	-4.8870849609375E-05	0.031884765625
14	0.0341796875	295.942492252817	-4.81597900390625E-05	0.03433837890625
15	0.03662109375	295.966892252755	-4.8016357421875E-05	0.0367919921875
16	0.0390625	295.991292252694	-4.8187255859375E-05	0.0391937255859375
17	0.04150390625	296.015692252632	-4.688720703125E-05	0.0416412353515625
18	0.0439453125	296.040092252571	-4.7735595703125E-05	0.044110107421875
19	0.04638671875	296.064492252509	-4.60479736328125E-05	0.04654541015625
20	0.048828125	296.088892252447	-4.69085693359375E-05	0.048956298828125
21	0.05126953125	296.113292252386	-4.58709716796875E-05	0.051361083984375
22	0.0537109375	296.137692252324	-4.583740234375E-05	0.053863525390625
23	0.05615234375	296.162092252263	-4.5660400390625E-05	0.0562744140625
24	0.05859375	296.186492252201	-4.48516845703125E-05	0.058746337890625
25	0.06103515625	296.210892252139	-4.55108642578125E-05	0.061126708984375
26	0.0634765625	296.235292252078	-4.38995361328125E-05	0.063629150390625
27	0.06591796875	296.259692252016	-4.46533203125E-05	0.0660400390625
28	0.068359375	296.284092251955	-4.31976318359375E-05	0.0684814453125
29	0.07080078125	296.308492251893	-4.36431884765625E-05	0.070892333984375
30	0.0732421875	296.332892251831	-4.3072509765625E-05	0.073333740234375
31	0.07568359375	296.35729225177	-4.246826171875E-05	0.0758056640625
32	0.078125	296.381692251708	-4.2779541015625E-05	0.0782470703125
33	0.08056640625	296.406092251647	-4.15008544921875E-05	0.0806884765625
34	0.0830078125	296.430492251585	-4.263916015625E-05	0.0831298828125
35	0.08544921875	296.454892251523	-4.10736083984375E-05	0.085601806640625
36	0.087890625	296.479292251462	-4.17083740234375E-05	0.088043212890625
37	0.09033203125	296.5036922514	-4.085693359375E-05	0.090484619140625
38	0.0927734375	296.528092251339	-4.078369140625E-05	0.092864990234375
39	0.09521484375	296.552492251277	-4.10308837890625E-05	0.095306396484375
40	0.09765625	296.576892251215	-3.97247314453125E-05	0.09771728515625
41	0.10009765625	296.601292251154	-4.049072265625E-05	0.10015869140625
42	0.1025390625	296.625692251092	-3.90472412109375E-05	0.102630615234375
43	0.10498046875	296.650092251031	-3.9886474609375E-05	0.10504150390625
44	0.107421875	296.674492250969	-3.878173828125E-05	0.107513427734375
45	0.10986328125	296.698892250907	-3.89617919921875E-05	0.10992431640625
46	0.1123046875	296.723292250846	-3.86199951171875E-05	0.112396240234375
47	0.11474609375	296.747692250784	-3.7945556640625E-05	0.114898681640625
48	0.1171875	296.772092250722	-3.8543701171875E-05	0.117340087890625
49	0.11962890625	296.796492250661	-3.7042236328125E-05	0.119720458984375
50	0.1220703125	296.820892250599	-3.77838134765625E-05	0.122161865234375
51	0.12451171875	296.845292250538	-3.629150390625E-05	0.124603271484375
52	0.126953125	296.869692250476	-3.6822509765625E-05	0.12701416015625
53	0.12939453125	296.894092250414	-3.62884521484375E-05	0.129486083984375
54	0.1318359375	296.918492250353	-3.5748291015625E-05	0.13189697265625
55	0.13427734375	296.942892250291	-3.5699462890625E-05	0.134368896484375
56	0.13671875	296.96729225023	-3.4539794921875E-05	0.136810302734375
57	0.13916015625	296.991692250168	-3.531494140625E-05	0.139251708984375
58	0.1416015625	297.016092250106	-3.36669921875E-05	0.141693115234375
59	0.14404296875	297.040492250045	-3.426513671875E-05	0.144134521484375
60	0.146484375	297.064892249983	-3.33648681640625E-05	0.14654541015625
61	0.14892578125	297.089292249922	-3.33587646484375E-05	0.1490478515625
62	0.1513671875	297.11369224986	-3.31268310546875E-05	0.151458740234375
63	0.15380859375	297.138092249798	-3.192138671875E-05	0.153961181640625
64	0.15625	297.162492249737	-3.2452392578125E-05	0.156341552734375
65	0.15869140625	297.186892249675	-3.08807373046875E-05	0.158782958984375
66	0.1611328125	297.211292249614	-3.1658935546875E-05	0.1612548828125
67	0.16357421875	297.235692249552	-3.04107666015625E-05	0.16363525390625
68	0.166015625	297.26009224949	-3.0560302734375E-05	0.166107177734375
69	0.16845703125	297.284492249429	-3.01422119140625E-05	0.168548583984375
70	0.1708984375	297.308892249367	-2.977294921875E-05	0.170989990234375
71	0.17333984375	297.333292249306	-3.009033203125E-05	0.1734619140625
72	0.17578125	297.357692249244	-2.8680419921875E-05	0.1759033203125
73	0.17822265625	297.382092249182	-2.93792724609375E-05	0.178314208984375
74	0.1806640625	297.406492249121	-2.7935791015625E-05	0.180755615234375
75	0.18310546875	297.430892249059	-2.8521728515625E-05	0.1832275390625
76	0.185546875	297.455292248998	-2.8021240234375E-05	0.18560791015625
77	0.18798828125	297.479692248936	-2.78228759765625E-05	0.18798828125
78	0.1904296875	297.504092248874	-2.8125E-05	0.19049072265625
79	0.19287109375	297.528492248813	-2.669677734375E-05	0.192901611328125
80	0.1953125	297.552892248751	-2.742919921875E-05	0.195343017578125
81	0.19775390625	297.57729224869	-2.59246826171875E-05	0.197845458984375
82	0.2001953125	297.601692248628	-2.66876220703125E-05	0.2003173828125
83	0.20263671875	297.626092248566	-2.557373046875E-05	0.202728271484375
84	0.205078125	297.650492248505	-2.55950927734375E-05	0.20513916015625
85	0.20751953125	297.674892248443	-2.56561279296875E-05	0.207550048828125
86	0.2099609375	297.699292248382	-2.4755859375E-05	0.21002197265625
87	0.21240234375	297.72369224832	-2.51495361328125E-05	0.21246337890625
88	0.21484375	297.748092248258	-2.35260009765625E-05	0.21484375
89	0.21728515625	297.772492248197	-2.45391845703125E-05	0.217315673828125
90	0.2197265625	297.796892248135	-2.3114013671875E-05	0.219818115234375
91	0.22216796875	297.821292248074	-2.366943359375E-05	0.22222900390625
92	0.224609375	297.845692248012	-2.26287841796875E-05	0.224609375
93	0.22705078125	297.87009224795	-2.2216796875E-05	0.227142333984375
94	0.2294921875	297.894492247889	-2.2283935546875E-05	0.22955322265625
95	0.23193359375	297.918892247827	-2.0660400390625E-05	0.23199462890625
96	0.234375	297.943292247765	-2.19512939453125E-05	0.23443603515625
97	0.23681640625	297.967692247704	-2.0111083984375E-05	0.23687744140625
98	0.2392578125	297.992092247642	-2.098388671875E-05	0.23931884765625
99	0.24169921875	298.016492247581	-1.9989013671875E-05	0.24176025390625
100	0.244140625	298.040892247519	-2.0068359375E-05	0.244140625
101	0.24658203125	298.065292247457	-1.95037841796875E-05	0.246612548828125
102	0.2490234375	298.089692247396	-1.87347412109375E-05	0.24908447265625
103	0.25146484375	298.114092247334	-1.97265625E-05	0.25152587890625
104	0.25390625	298.138492247273	-1.83013916015625E-05	0.25396728515625
105	0.25634765625	298.162892247211	-1.8939208984375E-05	0.25640869140625
106	0.2587890625	298.187292247149	-1.783447265625E-05	0.258819580078125
107	0.26123046875	298.211692247088	-1.78131103515625E-05	0.26123046875
108	0.263671875	298.236092247026	-1.76483154296875E-05	0.263671875
109	0.26611328125	298.260492246965	-1.7205810546875E-05	0.26611328125
110	0.2685546875	298.284892246903	-1.75689697265625E-05	0.2685546875
111	0.27099609375	298.309292246841	-1.60858154296875E-05	0.271026611328125
112	0.2734375	298.33369224678	-1.71966552734375E-05	0.2734375
113	0.27587890625	298.358092246718	-1.53594970703125E-05	0.275909423828125
114	0.2783203125	298.382492246657	-1.578369140625E-05	0.278350830078125
115	0.28076171875	298.406892246595	-1.50115966796875E-05	0.280792236328125
116	0.283203125	298.431292246533	-1.4593505859375E-05	0.283233642578125
117	0.28564453125	298.455692246472	-1.47705078125E-05	0.28564453125
118	0.2880859375	298.48009224641	-1.307373046875E-05	0.288116455078125
119	0.29052734375	298.504492246349	-1.3616943359375E-05	0.290557861328125
120	0.29296875	298.528892246287	-1.1553955078125E-05	0.29296875
121	0.29541015625	298.553292246225	-1.23809814453125E-05	0.295379638671875
122	0.2978515625	298.577692246164	-1.14013671875E-05	0.29791259765625
123	0.30029296875	298.602092246102	-1.16485595703125E-05	0.300262451171875
124	0.302734375	298.626492246041	-1.158447265625E-05	0.30279541015625
125	0.30517578125	298.650892245979	-1.02081298828125E-05	0.305206298828125
126	0.3076171875	298.675292245917	-1.124267578125E-05	0.307647705078125
127	0.31005859375	298.699692245856	-9.28955078125E-06	0.31005859375
128	0.3125	298.724092245794	-9.930419921875E-06	0.3125
129	0.31494140625	298.748492245733	-8.935546875E-06	0.31500244140625
130	0.3173828125	298.772892245671	-9.2987060546875E-06	0.317413330078125
131	0.31982421875	298.797292245609	-8.2305908203125E-06	0.319854736328125
132	0.322265625	298.821692245548	-7.4859619140625E-06	0.322357177734375
133	0.32470703125	298.846092245486	-7.7911376953125E-06	0.32489013671875
134	0.3271484375	298.870492245425	-6.60400390625E-06	0.327239990234375
135	0.32958984375	298.894892245363	-7.2998046875E-06	0.329559326171875
136	0.33203125	298.919292245301	-5.5206298828125E-06	0.33209228515625
137	0.33447265625	298.94369224524	-6.4971923828125E-06	0.33447265625
138	0.3369140625	298.968092245178	-5.255126953125E-06	0.336944580078125
139	0.33935546875	298.992492245117	-5.1177978515625E-06	0.339447021484375
140	0.341796875	299.016892245055	-5.0018310546875E-06	0.341827392578125
141	0.34423828125	299.041292244993	-4.00390625E-06	0.34429931640625
142	0.3466796875	299.065692244932	-4.5989990234375E-06	0.3466796875
143	0.34912109375	299.09009224487	-3.150634765625E-06	0.34918212890625
144	0.3515625	299.114492244809	-3.87176513671875E-06	0.3515625
145	0.35400390625	299.138892244747	-2.4481201171875E-06	0.354034423828125
146	0.3564453125	299.163292244685	-3.61328125E-06	0.35650634765625
147	0.35888671875	299.187692244624	-2.4578857421875E-06	0.3590087890625
148	0.361328125	299.212092244562	-1.85699462890625E-06	0.36138916015625
149	0.36376953125	299.2364922445	-1.795654296875E-06	0.36383056640625
150	0.3662109375	299.260892244439	-9.100341796875E-07	0.366241455078125
151	0.36865234375	299.285292244377	-1.64276123046875E-06	0.36865234375
152	0.37109375	299.309692244316	3.2928466796875E-07	0.37109375
153	0.37353515625	299.334092244254	5.645751953125E-08	0.37347412109375
154	0.3759765625	299.358492244192	2.117919921875E-07	0.376068115234375
155	0.37841796875	299.382892244131	7.2784423828125E-07	0.37841796875
156	0.380859375	299.407292244069	9.4818115234375E-07	0.380828857421875
157	0.38330078125	299.431692244008	2.099609375E-06	0.38262939453125
158	0.3857421875	299.456092243946	1.04827880859375E-06	0.38531494140625
159	0.38818359375	299.480492243884	2.667236328125E-06	0.387908935546875
160	0.390625	299.504892243823	2.1466064453125E-06	0.3896484375
161	0.39306640625	299.529292243761	3.78814697265625E-06	0.392486572265625
162	0.3955078125	299.5536922437	3.45458984375E-06	0.39544677734375
163	0.39794921875	299.578092243638	3.875732421875E-06	0.39788818359375
164	0.400390625	299.602492243576	4.827880859375E-06	0.400299072265625
165	0.40283203125	299.626892243515	4.3609619140625E-06	0.402679443359375
166	0.4052734375	299.651292243453	5.8441162109375E-06	0.405181884765625
167	0.40771484375	299.675692243392	4.803466796875E-06	0.407562255859375
168	0.41015625	299.70009224333	6.5673828125E-06	0.4100341796875
169	0.41259765625	299.724492243268	6.121826171875E-06	0.412445068359375
170	0.4150390625	299.748892243207	7.025146484375E-06	0.414947509765625
171	0.41748046875	299.773292243145	7.818603515625E-06	0.4173583984375
172	0.419921875	299.797692243084	8.0474853515625E-06	0.4197998046875
173	0.42236328125	299.822092243022	9.6954345703125E-06	0.422271728515625
174	0.4248046875	299.84649224296	9.3841552734375E-06	0.42462158203125
175	0.42724609375	299.870892242899	1.10198974609375E-05	0.4271240234375
176	0.4296875	299.895292242837	1.031494140625E-05	0.429443359375
177	0.43212890625	299.919692242776	1.109619140625E-05	0.431976318359375
178	0.4345703125	299.944092242714	1.22467041015625E-05	0.43426513671875
179	0.43701171875	299.968492242652	1.25518798828125E-05	0.43682861328125
180	0.439453125	299.992892242591	1.43524169921875E-05	0.43914794921875
181	0.44189453125	300.017292242529	1.400146484375E-05	0.441619873046875
182	0.4443359375	300.041692242468	1.5472412109375E-05	0.444091796875
183	0.44677734375	300.066092242406	1.5185546875E-05	0.44647216796875
184	0.44921875	300.090492242344	1.6363525390625E-05	0.448974609375
185	0.45166015625	300.114892242283	1.60858154296875E-05	0.451385498046875
186	0.4541015625	300.139292242221	1.73858642578125E-05	0.45379638671875
187	0.45654296875	300.16369224216	1.77947998046875E-05	0.4561767578125
188	0.458984375	300.188092242098	1.75750732421875E-05	0.458648681640625
189	0.46142578125	300.212492242036	1.8682861328125E-05	0.46099853515625
190	0.4638671875	300.236892241975	1.83441162109375E-05	0.46343994140625
191	0.46630859375	300.261292241913	2.02301025390625E-05	0.465911865234375
192	0.46875	300.285692241852	2.02117919921875E-05	0.46826171875
193	0.47119140625	300.31009224179	2.17559814453125E-05	0.470794677734375
194	0.4736328125	300.334492241728	2.1905517578125E-05	0.473114013671875
195	0.47607421875	300.358892241667	2.2393798828125E-05	0.475616455078125
196	0.478515625	300.383292241605	2.34619140625E-05	0.47802734375
197	0.48095703125	300.407692241543	2.3529052734375E-05	0.48046875
198	0.4833984375	300.432092241482	2.45452880859375E-05	0.482879638671875
199	0.48583984375	300.45649224142	2.4212646484375E-05	0.485198974609375
200	0.48828125	300.480892241359	2.5537109375E-05	0.487762451171875
201	0.49072265625	300.505292241297	2.5567626953125E-05	0.490142822265625
202	0.4931640625	300.529692241235	2.64495849609375E-05	0.49261474609375
203	0.49560546875	300.554092241174	2.69775390625E-05	0.494964599609375
204	0.498046875	300.578492241112	2.76153564453125E-05	0.497406005859375
205	0.50048828125	300.602892241051	3.02642822265625E-05	0.49981689453125
206	0.5029296875	300.627292240989	3.0316162109375E-05	0.502777099609375
207	0.50537109375	300.651692240927	3.17535400390625E-05	0.505279541015625
208	0.5078125	300.676092240866	3.209228515625E-05	0.507720947265625
209	0.51025390625	300.700492240804	3.39996337890625E-05	0.510162353515625
210	0.5126953125	300.724892240743	3.5302734375E-05	0.5125732421875
211	0.51513671875	300.749292240681	3.6370849609375E-05	0.515045166015625
212	0.517578125	300.773692240619	3.70208740234375E-05	0.51739501953125
213	0.52001953125	300.798092240558	3.67950439453125E-05	0.519866943359375
214	0.5224609375	300.822492240496	3.8531494140625E-05	0.522308349609375
215	0.52490234375	300.846892240435	3.86932373046875E-05	0.524810791015625
216	0.52734375	300.871292240373	4.10614013671875E-05	0.527191162109375
217	0.52978515625	300.895692240311	4.140625E-05	0.5296630859375
218	0.5322265625	300.92009224025	4.20196533203125E-05	0.532073974609375
219	0.53466796875	300.944492240188	4.412841796875E-05	0.534515380859375
220	0.537109375	300.968892240127	4.38812255859375E-05	0.536956787109375
221	0.53955078125	300.993292240065	4.58221435546875E-05	0.539398193359375
222	0.5419921875	301.017692240003	4.58526611328125E-05	0.541839599609375
223	0.54443359375	301.042092239942	4.77203369140625E-05	0.544281005859375
224	0.546875	301.06649223988	4.8248291015625E-05	0.546722412109375
225	0.54931640625	301.090892239819	4.96826171875E-05	0.549163818359375
226	0.5517578125	301.115292239757	5.0933837890625E-05	0.55157470703125
227	0.55419921875	301.139692239695	5.078125E-05	0.554046630859375
228	0.556640625	301.164092239634	5.4046630859375E-05	0.55645751953125
229	0.55908203125	301.188492239572	5.401611328125E-05	0.5589599609375
230	0.5615234375	301.212892239511	5.6396484375E-05	0.5614013671875
231	0.56396484375	301.237292239449	5.670166015625E-05	0.56378173828125
232	0.56640625	301.261692239387	5.8929443359375E-05	0.56622314453125
233	0.56884765625	301.286092239326	6.0394287109375E-05	0.56866455078125
234	0.5712890625	301.310492239264	6.2255859375E-05	0.571136474609375
235	0.57373046875	301.334892239203	6.34765625E-05	0.573577880859375
236	0.576171875	301.359292239141	6.365966796875E-05	0.57598876953125
237	0.57861328125	301.383692239079	6.707763671875E-05	0.578399658203125
238	0.5810546875	301.408092239018	6.5643310546875E-05	0.58087158203125
239	0.58349609375	301.432492238956	6.8115234375E-05	0.58331298828125
240	0.5859375	301.456892238895	6.8359375E-05	0.585723876953125
241	0.58837890625	301.481292238833	7.012939453125E-05	0.588165283203125
242	0.5908203125	301.505692238771	7.1685791015625E-05	0.590606689453125
243	0.59326171875	301.53009223871	7.3486328125E-05	0.59307861328125
244	0.595703125	301.554492238648	7.50732421875E-05	0.59552001953125
245	0.59814453125	301.578892238586	7.5439453125E-05	0.597900390625
246	0.6005859375	301.603292238525	7.84912109375E-05	0.600372314453125
247	0.60302734375	301.627692238463	7.94677734375E-05	0.602813720703125
248	0.60546875	301.652092238402	8.21533203125E-05	0.60528564453125
249	0.60791015625	301.67649223834	8.4320068359375E-05	0.607696533203125
250	0.6103515625	301.700892238278	8.636474609375E-05	0.61016845703125
251	0.61279296875	301.725292238217	8.9080810546875E-05	0.612579345703125
252	0.615234375	301.749692238155	9.0118408203125E-05	0.615020751953125
253	0.61767578125	301.774092238094	9.3505859375E-05	0.61737060546875
254	0.6201171875	301.798492238032	9.5306396484375E-05	0.619842529296875
255	0.62255859375	301.82289223797	9.86328125E-05	0.622314453125
256	0.625	301.847292237909	0.000100189208984375	0.624725341796875
257	0.62744140625	301.871692237847	0.00010186767578125	0.627197265625
258	0.6298828125	301.896092237786	0.00010589599609375	0.629638671875
259	0.63232421875	301.920492237724	0.0001063232421875	0.632049560546875
260	0.634765625	301.944892237662	0.00010943603515625	0.63446044921875
261	0.63720703125	301.969292237601	0.00011187744140625	0.63690185546875
262	0.6396484375	301.993692237539	0.00011383056640625	0.63934326171875
263	0.64208984375	302.018092237478	0.000115020751953125	0.641754150390625
264	0.64453125	302.042492237416	0.0001173095703125	0.6441650390625
265	0.64697265625	302.066892237354	0.000119781494140625	0.64666748046875
266	0.6494140625	302.091292237293	0.00012213134765625	0.64910888671875
267	0.65185546875	302.115692237231	0.00012579345703125	0.651519775390625
268	0.654296875	302.14009223717	0.00012811279296875	0.653961181640625
269	0.65673828125	302.164492237108	0.000130523681640625	0.656402587890625
270	0.6591796875	302.188892237046	0.000132659912109375	0.6588134765625
271	0.66162109375	302.213292236985	0.000135162353515625	0.661224365234375
272	0.6640625	302.237692236923	0.00013800048828125	0.6636962890625
273	0.66650390625	302.262092236862	0.000140716552734375	0.6661376953125
274	0.6689453125	302.2864922368	0.00014483642578125	0.668548583984375
275	0.67138671875	302.310892236738	0.000146759033203125	0.671051025390625
276	0.673828125	302.335292236677	0.00015106201171875	0.67340087890625
277	0.67626953125	302.359692236615	0.000152191162109375	0.67584228515625
278	0.6787109375	302.384092236554	0.000156219482421875	0.67828369140625
279	0.68115234375	302.408492236492	0.0001590576171875	0.6806640625
280	0.68359375	302.43289223643	0.000163665771484375	0.683135986328125
281	0.68603515625	302.457292236369	0.000167205810546875	0.685577392578125
282	0.6884765625	302.481692236307	0.000170654296875	0.687957763671875
283	0.69091796875	302.506092236246	0.000175018310546875	0.690399169921875
284	0.693359375	302.530492236184	0.000178466796875	0.69281005859375
285	0.69580078125	302.554892236122	0.0001832275390625	0.695220947265625
286	0.6982421875	302.579292236061	0.000186614990234375	0.69769287109375
287	0.70068359375	302.603692235999	0.000190399169921875	0.70013427734375
288	0.703125	302.628092235938	0.000195037841796875	0.70245361328125
289	0.70556640625	302.652492235876	0.00019879150390625	0.7049560546875
290	0.7080078125	302.676892235814	0.000203521728515625	0.707366943359375
291	0.71044921875	302.701292235753	0.000207305908203125	0.7098388671875
292	0.712890625	302.725692235691	0.000213226318359375	0.7122802734375
293	0.71533203125	302.750092235629	0.000216033935546875	0.714691162109375
294	0.7177734375	302.774492235568	0.000222503662109375	0.717132568359375
295	0.72021484375	302.798892235506	0.000226715087890625	0.719573974609375
296	0.72265625	302.823292235445	0.000231781005859375	0.721923828125
297	0.72509765625	302.847692235383	0.000237335205078125	0.724365234375
298	0.7275390625	302.872092235321	0.000241180419921875	0.726837158203125
299	0.72998046875	302.89649223526	0.000246124267578125	0.729278564453125
300	0.732421875	302.920892235198	0.00025018310546875	0.731658935546875
301	0.73486328125	302.945292235137	0.000256683349609375	0.734039306640625
302	0.7373046875	302.969692235075	0.000260894775390625	0.73651123046875
303	0.73974609375	302.994092235013	0.000268463134765625	0.738922119140625
304	0.7421875	303.018492234952	0.000272003173828125	0.7413330078125
305	0.74462890625	303.04289223489	0.0002781982421875	0.743804931640625
306	0.7470703125	303.067292234829	0.000286041259765625	0.746124267578125
307	0.74951171875	303.091692234767	0.00029095458984375	0.748565673828125
308	0.751953125	303.116092234705	0.00029840087890625	0.75103759765625
309	0.75439453125	303.140492234644	0.00030340576171875	0.7537841796875
310	0.7568359375	303.164892234582	0.00031072998046875	0.7562255859375
311	0.75927734375	303.189292234521	0.000315460205078125	0.7586669921875
312	0.76171875	303.213692234459	0.000321258544921875	0.76080322265625
313	0.76416015625	303.238092234397	0.000328765869140625	0.76324462890625
314	0.7666015625	303.262492234336	0.000335540771484375	0.76629638671875
315	0.76904296875	303.286892234274	0.000344146728515625	0.7684326171875
316	0.771484375	303.311292234213	0.000350677490234375	0.7708740234375
317	0.77392578125	303.335692234151	0.0003607177734375	0.7733154296875
318	0.7763671875	303.360092234089	0.000367095947265625	0.775146484375
319	0.77880859375	303.384492234028	0.00037420654296875	0.777587890625
320	0.78125	303.408892233966	0.000382110595703125	0.7806396484375
321	0.78369140625	303.433292233905	0.000388763427734375	0.7830810546875
322	0.7861328125	303.457692233843	0.000396148681640625	0.7855224609375
323	0.78857421875	303.482092233781	0.00040386962890625	0.78765869140625
324	0.791015625	303.50649223372	0.0004141845703125	0.79010009765625
325	0.79345703125	303.530892233658	0.00042108154296875	0.79254150390625
326	0.7958984375	303.555292233597	0.000431060791015625	0.7952880859375
327	0.79833984375	303.579692233535	0.00043975830078125	0.79742431640625
328	0.80078125	303.604092233473	0.000449249267578125	0.79986572265625
329	0.80322265625	303.628492233412	0.000459808349609375	0.802001953125
330	0.8056640625	303.65289223335	0.000469451904296875	0.804443359375
331	0.80810546875	303.677292233289	0.000480743408203125	0.806884765625
332	0.810546875	303.701692233227	0.000490386962890625	0.8099365234375
333	0.81298828125	303.726092233165	0.00050048828125	0.811767578125
334	0.8154296875	303.750492233104	0.00051055908203125	0.81512451171875
335	0.81787109375	303.774892233042	0.0005218505859375	0.8172607421875
336	0.8203125	303.799292232981	0.0005328369140625	0.8197021484375
337	0.82275390625	303.823692232919	0.00054290771484375	0.821533203125
338	0.8251953125	303.848092232857	0.0005548095703125	0.823974609375
339	0.82763671875	303.872492232796	0.00056671142578125	0.82672119140625
340	0.830078125	303.896892232734	0.00058013916015625	0.8294677734375
341	0.83251953125	303.921292232672	0.0005914306640625	0.831298828125
342	0.8349609375	303.945692232611	0.00060455322265625	0.83404541015625
343	0.83740234375	303.970092232549	0.0006170654296875	0.83648681640625
344	0.83984375	303.994492232488	0.00063018798828125	0.8392333984375
345	0.84228515625	304.018892232426	0.00064422607421875	0.8416748046875
346	0.8447265625	304.043292232364	0.0006573486328125	0.843505859375
347	0.84716796875	304.067692232303	0.0006719970703125	0.845947265625
348	0.849609375	304.092092232241	0.00068389892578125	0.84930419921875
349	0.85205078125	304.11649223218	0.00069915771484375	0.8514404296875
350	0.8544921875	304.140892232118	0.00071563720703125	0.8538818359375
351	0.85693359375	304.165292232056	0.00072998046875	0.85601806640625
352	0.859375	304.189692231995	0.00074554443359375	0.85845947265625
353	0.86181640625	304.214092231933	0.0007611083984375	0.8612060546875
354	0.8642578125	304.238492231872	0.00077728271484375	0.86334228515625
355	0.86669921875	304.26289223181	0.0007916259765625	0.86578369140625
356	0.869140625	304.287292231748	0.0008087158203125	0.8685302734375
357	0.87158203125	304.311692231687	0.00082489013671875	0.8709716796875
358	0.8740234375	304.336092231625	0.0008428955078125	0.872802734375
359	0.87646484375	304.360492231564	0.0008612060546875	0.87554931640625
360	0.87890625	304.384892231502	0.0008795166015625	0.8782958984375
361	0.88134765625	304.40929223144	0.00089691162109375	0.8807373046875
362	0.8837890625	304.433692231379	0.00091552734375	0.8831787109375
363	0.88623046875	304.458092231317	0.00093475341796875	0.8856201171875
364	0.888671875	304.482492231256	0.00095428466796875	0.88775634765625
365	0.89111328125	304.506892231194	0.00097503662109375	0.8905029296875
366	0.8935546875	304.531292231132	0.0009954833984375	0.8929443359375
367	0.89599609375	304.555692231071	0.00101593017578125	0.894775390625
368	0.8984375	304.580092231009	0.00103668212890625	0.89691162109375
369	0.90087890625	304.604492230948	0.00105926513671875	0.899658203125
370	0.9033203125	304.628892230886	0.00108001708984375	0.9027099609375
371	0.90576171875	304.653292230824	0.001102294921875	0.9051513671875
372	0.908203125	304.677692230763	0.00112548828125	0.906982421875
373	0.91064453125	304.702092230701	0.00114898681640625	0.90972900390625
374	0.9130859375	304.72649223064	0.0011724853515625	0.91217041015625
375	0.91552734375	304.750892230578	0.00119598388671875	0.91461181640625
376	0.91796875	304.775292230516	0.001220703125	0.9173583984375
377	0.92041015625	304.799692230455	0.00124542236328125	0.919189453125
378	0.9228515625	304.824092230393	0.001270751953125	0.9222412109375
379	0.92529296875	304.848492230332	0.00129669189453125	0.9246826171875
380	0.927734375	304.87289223027	0.00132293701171875	0.92681884765625
381	0.93017578125	304.897292230208	0.00134979248046875	0.928955078125
382	0.9326171875	304.921692230147	0.00137603759765625	0.931396484375
383	0.93505859375	304.946092230085	0.0014031982421875	0.933837890625
384	0.9375	304.970492230024	0.0014300537109375	0.9368896484375
385	0.93994140625	304.994892229962	0.00145965576171875	0.9393310546875
386	0.9423828125	305.0192922299	0.001488037109375	0.941162109375
387	0.94482421875	305.043692229839	0.00151763916015625	0.9442138671875
388	0.947265625	305.068092229777	0.0015460205078125	0.94635009765625
389	0.94970703125	305.092492229716	0.00157745361328125	0.94879150390625
390	0.9521484375	305.116892229654	0.00160736083984375	0.9515380859375
391	0.95458984375	305.141292229592	0.00163848876953125	0.95367431640625
392	0.95703125	305.165692229531	0.0016705322265625	0.95672607421875
393	0.95947265625	305.190092229469	0.00170166015625	0.958251953125
394	0.9619140625	305.214492229407	0.00173431396484375	0.96099853515625
395	0.96435546875	305.238892229346	0.001767578125	0.9637451171875
396	0.966796875	305.263292229284	0.00180084228515625	0.9661865234375
397	0.96923828125	305.287692229223	0.00183441162109375	0.968017578125
398	0.9716796875	305.312092229161	0.00186859130859375	0.97076416015625
399	0.97412109375	305.336492229099	0.0019036865234375	0.97320556640625
400	0.9765625	305.360892229038	0.0019384765625	0.9759521484375
401	0.97900390625	305.385292228976	0.00197509765625	0.977783203125
402	0.9814453125	305.409692228915	0.0020111083984375	0.98052978515625
403	0.98388671875	305.434092228853	0.0020477294921875	0.982666015625
404	0.986328125	305.458492228791	0.00208465576171875	0.98480224609375
405	0.98876953125	305.48289222873	0.002122802734375	0.9881591796875
406	0.9912109375	305.507292228668	0.0021612548828125	0.99029541015625
407	0.99365234375	305.531692228607	0.00220001220703125	0.992431640625
408	0.99609375	305.556092228545	0.002239990234375	0.99456787109375
409	0.99853515625	305.580492228483	0.00227935791015625	0.99761962890625
410	1.0009765625	305.604892228422	0.00232086181640625	1.0003662109375
411	1.00341796875	305.62929222836	0.00236053466796875	1.00250244140625
412	1.005859375	305.653692228299	0.00240203857421875	1.00555419921875
413	1.00830078125	305.678092228237	0.00244537353515625	1.0076904296875
414	1.0107421875	305.702492228175	0.00248809814453125	1.01043701171875
415	1.01318359375	305.726892228114	0.00253082275390625	1.01226806640625
416	1.015625	305.751292228052	0.00257293701171875	1.0150146484375
417	1.01806640625	305.775692227991	0.00261810302734375	1.01715087890625
418	1.0205078125	305.800092227929	0.002662353515625	1.01959228515625
419	1.02294921875	305.824492227867	0.0027081298828125	1.02203369140625
420	1.025390625	305.848892227806	0.002752685546875	1.02447509765625
421	1.02783203125	305.873292227744	0.00279754638671875	1.02691650390625
422	1.0302734375	305.897692227683	0.002845458984375	1.029052734375
423	1.03271484375	305.922092227621	0.00289215087890625	1.0321044921875
424	1.03515625	305.946492227559	0.00293914794921875	1.0345458984375
425	1.03759765625	305.970892227498	0.00298614501953125	1.03668212890625
426	1.0400390625	305.995292227436	0.00303497314453125	1.03912353515625
427	1.04248046875	306.019692227375	0.00308380126953125	1.041259765625
428	1.044921875	306.044092227313	0.00313262939453125	1.0443115234375
429	1.04736328125	306.068492227251	0.0031817626953125	1.046142578125
430	1.0498046875	306.09289222719	0.003231201171875	1.04888916015625
431	1.05224609375	306.117292227128	0.00328216552734375	1.05133056640625
432	1.0546875	306.141692227067	0.00333251953125	1.053466796875
433	1.05712890625	306.166092227005	0.00338409423828125	1.055908203125
434	1.0595703125	306.190492226943	0.00343505859375	1.05865478515625
435	1.06201171875	306.214892226882	0.00348663330078125	1.06109619140625
436	1.064453125	306.23929222682	0.0035382080078125	1.06353759765625
437	1.06689453125	306.263692226759	0.00358978271484375	1.06597900390625
438	1.0693359375	306.288092226697	0.0036419677734375	1.068115234375
439	1.07177734375	306.312492226635	0.003692626953125	1.070556640625
440	1.07421875	306.336892226574	0.0037451171875	1.0736083984375
441	1.07666015625	306.361292226512	0.00379638671875	1.075439453125
442	1.0791015625	306.38569222645	0.00384765625	1.07757568359375
443	1.08154296875	306.410092226389	0.00389801025390625	1.0809326171875
444	1.083984375	306.434492226327	0.00394805908203125	1.08245849609375
445	1.08642578125	306.458892226266	0.003997802734375	1.08551025390625
446	1.0888671875	306.483292226204	0.00404632568359375	1.087646484375
447	1.09130859375	306.507692226142	0.00409423828125	1.09039306640625
448	1.09375	306.532092226081	0.004140625	1.09283447265625
449	1.09619140625	306.556492226019	0.00418670654296875	1.09466552734375
450	1.0986328125	306.580892225958	0.0042315673828125	1.09771728515625
451	1.10107421875	306.605292225896	0.0042742919921875	1.099853515625
452	1.103515625	306.629692225834	0.00431610107421875	1.10260009765625
453	1.10595703125	306.654092225773	0.00435699462890625	1.104736328125
454	1.1083984375	306.678492225711	0.0043963623046875	1.107177734375
455	1.11083984375	306.70289222565	0.00443450927734375	1.109619140625
456	1.11328125	306.727292225588	0.004471435546875	1.1126708984375
457	1.11572265625	306.751692225526	0.0045068359375	1.114501953125
458	1.1181640625	306.776092225465	0.00454132080078125	1.11663818359375
459	1.12060546875	306.800492225403	0.00457489013671875	1.11907958984375
460	1.123046875	306.824892225342	0.00460662841796875	1.121826171875
461	1.12548828125	306.84929222528	0.00463775634765625	1.12457275390625
462	1.1279296875	306.873692225218	0.00466766357421875	1.12640380859375
463	1.13037109375	306.898092225157	0.004697265625	1.129150390625
464	1.1328125	306.922492225095	0.00472564697265625	1.13128662109375
465	1.13525390625	306.946892225034	0.00475341796875	1.1346435546875
466	1.1376953125	306.971292224972	0.00477996826171875	1.1370849609375
467	1.14013671875	306.99569222491	0.004805908203125	1.13922119140625
468	1.142578125	307.020092224849	0.00483123779296875	1.141357421875
469	1.14501953125	307.044492224787	0.0048553466796875	1.14410400390625
470	1.1474609375	307.068892224726	0.004879150390625	1.1468505859375
471	1.14990234375	307.093292224664	0.00490203857421875	1.148681640625
472	1.15234375	307.117692224602	0.00492462158203125	1.151123046875
473	1.15478515625	307.142092224541	0.00494659423828125	1.1541748046875
474	1.1572265625	307.166492224479	0.00496826171875	1.1566162109375
475	1.15966796875	307.190892224418	0.004989013671875	1.15875244140625
476	1.162109375	307.215292224356	0.0050091552734375	1.16058349609375
477	1.16455078125	307.239692224294	0.005029296875	1.16363525390625
478	1.1669921875	307.264092224233	0.00504913330078125	1.165771484375
479	1.16943359375	307.288492224171	0.005068359375	1.168212890625
480	1.171875	307.31289222411	0.005086669921875	1.17095947265625
481	1.17431640625	307.337292224048	0.00510528564453125	1.17340087890625
482	1.1767578125	307.361692223986	0.005123291015625	1.17584228515625
483	1.17919921875	307.386092223925	0.0051409912109375	1.17828369140625
484	1.181640625	307.410492223863	0.0051580810546875	1.18072509765625
485	1.18408203125	307.434892223802	0.00517486572265625	1.18316650390625
486	1.1865234375	307.45929222374	0.005191650390625	1.18499755859375
487	1.18896484375	307.483692223678	0.0052081298828125	1.1871337890625
488	1.19140625	307.508092223617	0.00522430419921875	1.190185546875
489	1.19384765625	307.532492223555	0.0052398681640625	1.192626953125
490	1.1962890625	307.556892223493	0.00525543212890625	1.19476318359375
491	1.19873046875	307.581292223432	0.00527069091796875	1.197509765625
492	1.201171875	307.60569222337	0.00528564453125	1.199951171875
493	1.19873046875	307.630092223309	0.00526641845703125	1.19720458984375
494	1.1962890625	307.654492223247	0.00524688720703125	1.19537353515625
495	1.19384765625	307.678892223185	0.00522674560546875	1.19232177734375
496	1.19140625	307.703292223124	0.00520660400390625	1.190185546875
497	1.18896484375	307.727692223062	0.00518585205078125	1.18804931640625
498	1.1865234375	307.752092223001	0.0051641845703125	1.185302734375
499	1.18408203125	307.776492222939	0.00514251708984375	1.1834716796875
500	1.181640625	307.800892222877	0.0051202392578125	1.180419921875
501	1.17919921875	307.825292222816	0.00509765625	1.17767333984375
502	1.1767578125	307.849692222754	0.005074462890625	1.17584228515625
503	1.17431640625	307.874092222693	0.005050048828125	1.173095703125
504	1.171875	307.898492222631	0.00502532958984375	1.1712646484375
505	1.16943359375	307.922892222569	0.005	1.16851806640625
506	1.1669921875	307.947292222508	0.00497406005859375	1.165771484375
507	1.16455078125	307.971692222446	0.0049468994140625	1.163330078125
508	1.162109375	307.996092222385	0.00491943359375	1.16119384765625
509	1.15966796875	308.020492222323	0.00489105224609375	1.158447265625
510	1.1572265625	308.044892222261	0.0048614501953125	1.156005859375
511	1.15478515625	308.0692922222	0.0048309326171875	1.15386962890625
512	1.15234375	308.093692222138	0.0047991943359375	1.151123046875
513	1.14990234375	308.118092222077	0.004766845703125	1.1492919921875
514	1.1474609375	308.142492222015	0.00473297119140625	1.1468505859375
515	1.14501953125	308.166892221953	0.00469757080078125	1.143798828125
516	1.142578125	308.191292221892	0.00466094970703125	1.1419677734375
517	1.14013671875	308.21569222183	0.004622802734375	1.13922119140625
518	1.1376953125	308.240092221769	0.00458343505859375	1.1370849609375
519	1.13525390625	308.264492221707	0.00454193115234375	1.134033203125
520	1.1328125	308.288892221645	0.0044989013671875	1.131591796875
521	1.13037109375	308.313292221584	0.0044537353515625	1.129150390625
522	1.1279296875	308.337692221522	0.00440704345703125	1.126708984375
523	1.12548828125	308.362092221461	0.0043585205078125	1.124267578125
524	1.123046875	308.386492221399	0.004307861328125	1.1224365234375
525	1.12060546875	308.410892221337	0.00425506591796875	1.11968994140625
526	1.1181640625	308.435292221276	0.004200439453125	1.116943359375
527	1.11572265625	308.459692221214	0.00414337158203125	1.114501953125
528	1.11328125	308.484092221153	0.004085693359375	1.11236572265625
529	1.11083984375	308.508492221091	0.0040264892578125	1.1102294921875
530	1.1083984375	308.532892221029	0.00396514892578125	1.107177734375
531	1.10595703125	308.557292220968	0.00390350341796875	1.10443115234375
532	1.103515625	308.581692220906	0.0038409423828125	1.102294921875
533	1.10107421875	308.606092220845	0.0037774658203125	1.1004638671875
534	1.0986328125	308.630492220783	0.00371337890625	1.0980224609375
535	1.09619140625	308.654892220721	0.00364990234375	1.09588623046875
536	1.09375	308.67929222066	0.00358673095703125	1.092529296875
537	1.09130859375	308.703692220598	0.00352325439453125	1.09039306640625
538	1.0888671875	308.728092220536	0.00345977783203125	1.0882568359375
539	1.08642578125	308.752492220475	0.00339599609375	1.08551025390625
540	1.083984375	308.776892220413	0.003333740234375	1.08306884765625
541	1.08154296875	308.801292220352	0.00327239990234375	1.0809326171875
542	1.0791015625	308.82569222029	0.00321197509765625	1.07818603515625
543	1.07666015625	308.850092220228	0.00315093994140625	1.0760498046875
544	1.07421875	308.874492220167	0.00309112548828125	1.07330322265625
545	1.07177734375	308.898892220105	0.0030316162109375	1.0711669921875
546	1.0693359375	308.923292220044	0.002972412109375	1.06842041015625
547	1.06689453125	308.947692219982	0.0029150390625	1.06597900390625
548	1.064453125	308.97209221992	0.00285858154296875	1.06353759765625
549	1.06201171875	308.996492219859	0.0028033447265625	1.0614013671875
550	1.0595703125	309.020892219797	0.00274749755859375	1.058349609375
551	1.05712890625	309.045292219736	0.00269378662109375	1.0565185546875
552	1.0546875	309.069692219674	0.00264068603515625	1.053466796875
553	1.05224609375	309.094092219612	0.002587890625	1.05224609375
554	1.0498046875	309.118492219551	0.0025347900390625	1.048583984375
555	1.04736328125	309.142892219489	0.00248443603515625	1.046142578125
556	1.044921875	309.167292219428	0.002435302734375	1.043701171875
557	1.04248046875	309.191692219366	0.0023858642578125	1.0418701171875
558	1.0400390625	309.216092219304	0.00233795166015625	1.0394287109375
559	1.03759765625	309.240492219243	0.00229034423828125	1.03668212890625
560	1.03515625	309.264892219181	0.00224395751953125	1.0345458984375
561	1.03271484375	309.28929221912	0.002197265625	1.0321044921875
562	1.0302734375	309.313692219058	0.00215087890625	1.029052734375
563	1.02783203125	309.338092218996	0.0021075439453125	1.02752685546875
564	1.025390625	309.362492218935	0.00206451416015625	1.024169921875
565	1.02294921875	309.386892218873	0.0020220947265625	1.021728515625
566	1.0205078125	309.411292218812	0.00197998046875	1.0198974609375
567	1.01806640625	309.43569221875	0.001939697265625	1.016845703125
568	1.015625	309.460092218688	0.00189971923828125	1.01470947265625
569	1.01318359375	309.484492218627	0.0018609619140625	1.01165771484375
570	1.0107421875	309.508892218565	0.0018212890625	1.00982666015625
571	1.00830078125	309.533292218504	0.0017840576171875	1.00738525390625
572	1.005859375	309.557692218442	0.00174774169921875	1.0052490234375
573	1.00341796875	309.58209221838	0.0017120361328125	1.00250244140625
574	1.0009765625	309.606492218319	0.001678466796875	1.00006103515625
575	0.99853515625	309.630892218257	0.00164337158203125	0.99761962890625
576	0.99609375	309.655292218196	0.00160980224609375	0.994873046875
577	0.99365234375	309.679692218134	0.0015771484375	0.99273681640625
578	0.9912109375	309.704092218072	0.00154510498046875	0.9893798828125
579	0.98876953125	309.728492218011	0.0015130615234375	0.9881591796875
580	0.986328125	309.752892217949	0.00148101806640625	0.9857177734375
581	0.98388671875	309.777292217888	0.00145111083984375	0.98297119140625
582	0.9814453125	309.801692217826	0.00142181396484375	0.980224609375
583	0.97900390625	309.826092217764	0.00139373779296875	0.97808837890625
584	0.9765625	309.850492217703	0.00136505126953125	0.9759521484375
585	0.97412109375	309.874892217641	0.00133758544921875	0.97320556640625
586	0.9716796875	309.89929221758	0.00131011962890625	0.9710693359375
587	0.96923828125	309.923692217518	0.0012841796875	0.968017578125
588	0.966796875	309.948092217456	0.00125885009765625	0.96588134765625
589	0.96435546875	309.972492217395	0.00123321533203125	0.963134765625
590	0.9619140625	309.996892217333	0.00120941162109375	0.96099853515625
591	0.95947265625	310.021292217271	0.00118621826171875	0.958251953125
592	0.95703125	310.04569221721	0.00116241455078125	0.955810546875
593	0.95458984375	310.070092217148	0.00113983154296875	0.95367431640625
594	0.9521484375	310.094492217087	0.001116943359375	0.95123291015625
595	0.94970703125	310.118892217025	0.001097412109375	0.94879150390625
596	0.947265625	310.143292216963	0.0010748291015625	0.94635009765625
597	0.94482421875	310.167692216902	0.00105499267578125	0.943603515625
598	0.9423828125	310.19209221684	0.00103363037109375	0.94207763671875
599	0.93994140625	310.216492216779	0.00101470947265625	0.93902587890625
600	0.9375	310.240892216717	0.00099578857421875	0.93597412109375
601	0.93505859375	310.265292216655	0.00097747802734375	0.933837890625
602	0.9326171875	310.289692216594	0.0009588623046875	0.9320068359375
603	0.93017578125	310.314092216532	0.00093994140625	0.928955078125
604	0.927734375	310.338492216471	0.0009228515625	0.9271240234375
605	0.92529296875	310.362892216409	0.00090576171875	0.9246826171875
606	0.9228515625	310.387292216347	0.00088958740234375	0.9222412109375
607	0.92041015625	310.411692216286	0.00087158203125	0.9197998046875
608	0.91796875	310.436092216224	0.0008563232421875	0.916748046875
609	0.91552734375	310.460492216163	0.00084075927734375	0.9149169921875
610	0.9130859375	310.484892216101	0.00082427978515625	0.91217041015625
611	0.91064453125	310.509292216039	0.0008099365234375	0.9100341796875
612	0.908203125	310.533692215978	0.000794677734375	0.9075927734375
613	0.90576171875	310.558092215916	0.0007806396484375	0.9051513671875
614	0.9033203125	310.582492215855	0.00076629638671875	0.902099609375
615	0.90087890625	310.606892215793	0.00075347900390625	0.9002685546875
616	0.8984375	310.631292215731	0.00073974609375	0.8978271484375
617	0.89599609375	310.65569221567	0.00072601318359375	0.89569091796875
618	0.8935546875	310.680092215608	0.00071380615234375	0.89324951171875
619	0.89111328125	310.704492215547	0.000701904296875	0.8905029296875
620	0.888671875	310.728892215485	0.0006915283203125	0.88775634765625
621	0.88623046875	310.753292215423	0.00067718505859375	0.88531494140625
622	0.8837890625	310.777692215362	0.00066619873046875	0.88287353515625
623	0.88134765625	310.8020922153	0.000653076171875	0.88104248046875
624	0.87890625	310.826492215239	0.0006427001953125	0.8782958984375
625	0.87646484375	310.850892215177	0.0006317138671875	0.8758544921875
626	0.8740234375	310.875292215115	0.0006207275390625	0.872802734375
627	0.87158203125	310.899692215054	0.0006109619140625	0.870361328125
628	0.869140625	310.924092214992	0.00059783935546875	0.86822509765625
629	0.86669921875	310.948492214931	0.00058837890625	0.8660888671875
630	0.8642578125	310.972892214869	0.00057861328125	0.8636474609375
631	0.86181640625	310.997292214807	0.0005694580078125	0.86090087890625
632	0.859375	311.021692214746	0.0005584716796875	0.85845947265625
633	0.85693359375	311.046092214684	0.000548095703125	0.8563232421875
634	0.8544921875	311.070492214623	0.00053924560546875	0.8538818359375
635	0.85205078125	311.094892214561	0.00052947998046875	0.85113525390625
636	0.849609375	311.119292214499	0.00052093505859375	0.848388671875
637	0.84716796875	311.143692214438	0.0005126953125	0.84625244140625
638	0.8447265625	311.168092214376	0.00050384521484375	0.84381103515625
639	0.84228515625	311.192492214314	0.00049407958984375	0.84075927734375
640	0.83984375	311.216892214253	0.000484893798828125	0.83892822265625
641	0.83740234375	311.241292214191	0.00047613525390625	0.83709716796875
642	0.8349609375	311.26569221413	0.0004677734375	0.833740234375
643	0.83251953125	311.290092214068	0.000460052490234375	0.83160400390625
644	0.830078125	311.314492214006	0.00045062255859375	0.82916259765625
645	0.82763671875	311.338892213945	0.0004439697265625	0.826416015625
646	0.8251953125	311.363292213883	0.000435943603515625	0.8245849609375
647	0.82275390625	311.387692213822	0.000428802490234375	0.82183837890625
648	0.8203125	311.41209221376	0.00042144775390625	0.819091796875
649	0.81787109375	311.436492213698	0.000412322998046875	0.8172607421875
650	0.8154296875	311.460892213637	0.000406524658203125	0.814208984375
651	0.81298828125	311.485292213575	0.000399169921875	0.811767578125
652	0.810546875	311.509692213514	0.000393707275390625	0.809326171875
653	0.80810546875	311.534092213452	0.0003857421875	0.80657958984375
654	0.8056640625	311.55849221339	0.000379638671875	0.804443359375
655	0.80322265625	311.582892213329	0.000372314453125	0.8026123046875
656	0.80078125	311.607292213267	0.0003658447265625	0.799560546875
657	0.79833984375	311.631692213206	0.000360992431640625	0.7977294921875
658	0.7958984375	311.656092213144	0.0003536376953125	0.7952880859375
659	0.79345703125	311.680492213082	0.00034918212890625	0.792236328125
660	0.791015625	311.704892213021	0.000341552734375	0.7904052734375
661	0.78857421875	311.729292212959	0.000336578369140625	0.78826904296875
662	0.7861328125	311.753692212898	0.000329620361328125	0.784912109375
663	0.78369140625	311.778092212836	0.000324676513671875	0.78277587890625
664	0.78125	311.802492212774	0.000318756103515625	0.78033447265625
665	0.77880859375	311.826892212713	0.000312255859375	0.77850341796875
666	0.7763671875	311.851292212651	0.00030718994140625	0.775146484375
667	0.77392578125	311.87569221259	0.0003011474609375	0.77301025390625
668	0.771484375	311.900092212528	0.00029644775390625	0.77056884765625
669	0.76904296875	311.924492212466	0.00029083251953125	0.76812744140625
670	0.7666015625	311.948892212405	0.000286041259765625	0.7659912109375
671	0.76416015625	311.973292212343	0.00028204345703125	0.7635498046875
672	0.76171875	311.997692212282	0.0002747802734375	0.7611083984375
673	0.75927734375	312.02209221222	0.00027191162109375	0.75836181640625
674	0.7568359375	312.046492212158	0.0002657470703125	0.75592041015625
675	0.75439453125	312.070892212097	0.000261871337890625	0.7537841796875
676	0.751953125	312.095292212035	0.00025689697265625	0.75103759765625
677	0.74951171875	312.119692211974	0.000251220703125	0.749298095703125
678	0.7470703125	312.144092211912	0.000246612548828125	0.746826171875
679	0.74462890625	312.16849221185	0.00024102783203125	0.744384765625
680	0.7421875	312.192892211789	0.000237213134765625	0.741973876953125
681	0.73974609375	312.217292211727	0.00023284912109375	0.739501953125
682	0.7373046875	312.241692211666	0.00022991943359375	0.73712158203125
683	0.73486328125	312.266092211604	0.000224609375	0.734649658203125
684	0.732421875	312.290492211542	0.0002210693359375	0.732208251953125
685	0.72998046875	312.314892211481	0.000215545654296875	0.729827880859375
686	0.7275390625	312.339292211419	0.00021160888671875	0.727294921875
687	0.72509765625	312.363692211357	0.000207366943359375	0.724884033203125
688	0.72265625	312.388092211296	0.00020330810546875	0.7225341796875
689	0.72021484375	312.412492211234	0.00019873046875	0.72003173828125
690	0.7177734375	312.436892211173	0.000194610595703125	0.71759033203125
691	0.71533203125	312.461292211111	0.000191436767578125	0.715118408203125
692	0.712890625	312.485692211049	0.000186126708984375	0.712646484375
693	0.71044921875	312.510092210988	0.000184112548828125	0.710296630859375
694	0.7080078125	312.534492210926	0.000180755615234375	0.707855224609375
695	0.70556640625	312.558892210865	0.000175048828125	0.705322265625
696	0.703125	312.583292210803	0.000173248291015625	0.702972412109375
697	0.70068359375	312.607692210741	0.00016790771484375	0.70050048828125
698	0.6982421875	312.63209221068	0.000166107177734375	0.698089599609375
699	0.69580078125	312.656492210618	0.0001622314453125	0.69561767578125
700	0.693359375	312.680892210557	0.00016009521484375	0.693145751953125
701	0.69091796875	312.705292210495	0.0001566162109375	0.690704345703125
702	0.6884765625	312.729692210433	0.00015362548828125	0.688323974609375
703	0.68603515625	312.754092210372	0.000150360107421875	0.685882568359375
704	0.68359375	312.77849221031	0.000146209716796875	0.68341064453125
705	0.68115234375	312.802892210249	0.00014404296875	0.68096923828125
706	0.6787109375	312.827292210187	0.000139892578125	0.6785888671875
707	0.67626953125	312.851692210125	0.000137939453125	0.676177978515625
708	0.673828125	312.876092210064	0.0001337890625	0.6737060546875
709	0.67138671875	312.900492210002	0.000131622314453125	0.67120361328125
710	0.6689453125	312.924892209941	0.0001295166015625	0.66876220703125
711	0.66650390625	312.949292209879	0.00012628173828125	0.666351318359375
712	0.6640625	312.973692209817	0.000125030517578125	0.663909912109375
713	0.66162109375	312.998092209756	0.000120941162109375	0.661468505859375
714	0.6591796875	313.022492209694	0.000119384765625	0.659088134765625
715	0.65673828125	313.046892209633	0.000116241455078125	0.656646728515625
716	0.654296875	313.071292209571	0.000114227294921875	0.65423583984375
717	0.65185546875	313.095692209509	0.000111083984375	0.651763916015625
718	0.6494140625	313.120092209448	0.00010943603515625	0.64923095703125
719	0.64697265625	313.144492209386	0.00010662841796875	0.6468505859375
720	0.64453125	313.168892209325	0.00010296630859375	0.644378662109375
721	0.64208984375	313.193292209263	0.00010205078125	0.6419677734375
722	0.6396484375	313.217692209201	9.8297119140625E-05	0.639556884765625
723	0.63720703125	313.24209220914	9.7076416015625E-05	0.63702392578125
724	0.634765625	313.266492209078	9.466552734375E-05	0.6346435546875
725	0.63232421875	313.290892209017	9.2193603515625E-05	0.632232666015625
726	0.6298828125	313.315292208955	9.173583984375E-05	0.629791259765625
727	0.62744140625	313.339692208893	8.8531494140625E-05	0.627105712890625
728	0.625	313.364092208832	8.721923828125E-05	0.624725341796875
729	0.62255859375	313.38849220877	8.4381103515625E-05	0.62237548828125
730	0.6201171875	313.412892208709	8.355712890625E-05	0.619873046875
731	0.61767578125	313.437292208647	7.9803466796875E-05	0.617462158203125
732	0.615234375	313.461692208585	7.94677734375E-05	0.61505126953125
733	0.61279296875	313.486092208524	7.6690673828125E-05	0.61248779296875
734	0.6103515625	313.510492208462	7.5042724609375E-05	0.61016845703125
735	0.60791015625	313.5348922084	7.32421875E-05	0.607757568359375
736	0.60546875	313.559292208339	6.9793701171875E-05	0.605316162109375
737	0.60302734375	313.583692208277	6.9915771484375E-05	0.60284423828125
738	0.6005859375	313.608092208216	6.7230224609375E-05	0.600433349609375
739	0.59814453125	313.632492208154	6.671142578125E-05	0.597930908203125
740	0.595703125	313.656892208092	6.439208984375E-05	0.595550537109375
741	0.59326171875	313.681292208031	6.298828125E-05	0.59307861328125
742	0.5908203125	313.705692207969	6.207275390625E-05	0.59063720703125
743	0.58837890625	313.730092207908	6.1309814453125E-05	0.58819580078125
744	0.5859375	313.754492207846	6.0150146484375E-05	0.585784912109375
745	0.58349609375	313.778892207784	5.72509765625E-05	0.58331298828125
746	0.5810546875	313.803292207723	5.7281494140625E-05	0.58087158203125
747	0.57861328125	313.827692207661	5.474853515625E-05	0.578399658203125
748	0.576171875	313.8520922076	5.3741455078125E-05	0.5760498046875
749	0.57373046875	313.876492207538	5.218505859375E-05	0.573577880859375
750	0.5712890625	313.900892207476	5.0567626953125E-05	0.571136474609375
751	0.56884765625	313.925292207415	5.0079345703125E-05	0.568695068359375
752	0.56640625	313.949692207353	4.764404296875E-05	0.566253662109375
753	0.56396484375	313.974092207292	4.76806640625E-05	0.5638427734375
754	0.5615234375	313.99849220723	4.6044921875E-05	0.5614013671875
755	0.55908203125	314.022892207168	4.56817626953125E-05	0.558990478515625
756	0.556640625	314.047292207107	4.42138671875E-05	0.556488037109375
757	0.55419921875	314.071692207045	4.27459716796875E-05	0.5540771484375
758	0.5517578125	314.096092206984	4.190673828125E-05	0.5516357421875
759	0.54931640625	314.120492206922	4.013671875E-05	0.549224853515625
760	0.546875	314.14489220686	4.02313232421875E-05	0.54669189453125
761	0.54443359375	314.169292206799	3.92242431640625E-05	0.544281005859375
762	0.5419921875	314.193692206737	3.77410888671875E-05	0.5418701171875
763	0.53955078125	314.218092206676	3.6846923828125E-05	0.5394287109375
764	0.537109375	314.242492206614	3.50616455078125E-05	0.537017822265625
765	0.53466796875	314.266892206552	3.47900390625E-05	0.534576416015625
766	0.5322265625	314.291292206491	3.30596923828125E-05	0.5321044921875
767	0.52978515625	314.315692206429	3.277587890625E-05	0.529693603515625
768	0.52734375	314.340092206368	3.0291748046875E-05	0.527191162109375
769	0.52490234375	314.364492206306	3.0816650390625E-05	0.5247802734375
770	0.5224609375	314.388892206244	2.92022705078125E-05	0.5223388671875
771	0.52001953125	314.413292206183	2.8448486328125E-05	0.519927978515625
772	0.517578125	314.437692206121	2.742919921875E-05	0.517486572265625
773	0.51513671875	314.46209220606	2.6300048828125E-05	0.5150146484375
774	0.5126953125	314.486492205998	2.574462890625E-05	0.512664794921875
775	0.51025390625	314.510892205936	2.49542236328125E-05	0.5101318359375
776	0.5078125	314.535292205875	2.5091552734375E-05	0.50775146484375
777	0.50537109375	314.559692205813	2.30682373046875E-05	0.50518798828125
778	0.5029296875	314.584092205752	2.40966796875E-05	0.5028076171875
779	0.50048828125	314.60849220569	2.28973388671875E-05	0.500396728515625
780	0.498046875	314.632892205628	2.24456787109375E-05	0.497955322265625
781	0.49560546875	314.657292205567	2.30712890625E-05	0.49554443359375
782	0.4931640625	314.681692205505	1.96929931640625E-05	0.49310302734375
783	0.49072265625	314.706092205443	2.0947265625E-05	0.49072265625
784	0.48828125	314.730492205382	1.983642578125E-05	0.48822021484375
785	0.48583984375	314.75489220532	1.98516845703125E-05	0.485809326171875
786	0.4833984375	314.779292205259	1.90887451171875E-05	0.48333740234375
787	0.48095703125	314.803692205197	1.8206787109375E-05	0.480926513671875
788	0.478515625	314.828092205135	1.76177978515625E-05	0.47845458984375
789	0.47607421875	314.852492205074	1.62445068359375E-05	0.476043701171875
790	0.4736328125	314.876892205012	1.66168212890625E-05	0.473602294921875
791	0.47119140625	314.901292204951	1.36993408203125E-05	0.47113037109375
792	0.46875	314.925692204889	1.43585205078125E-05	0.46868896484375
793	0.46630859375	314.950092204827	1.337890625E-05	0.466278076171875
794	0.4638671875	314.974492204766	1.3623046875E-05	0.46380615234375
795	0.46142578125	314.998892204704	1.20849609375E-05	0.46136474609375
796	0.458984375	315.023292204643	1.173095703125E-05	0.458953857421875
797	0.45654296875	315.047692204581	1.15386962890625E-05	0.456451416015625
798	0.4541015625	315.072092204519	9.6527099609375E-06	0.45404052734375
799	0.45166015625	315.096492204458	1.05133056640625E-05	0.451629638671875
800	0.44921875	315.120892204396	9.5672607421875E-06	0.449127197265625
801	0.44677734375	315.145292204335	9.6923828125E-06	0.446746826171875
802	0.4443359375	315.169692204273	8.9569091796875E-06	0.444305419921875
803	0.44189453125	315.194092204211	8.0810546875E-06	0.44183349609375
804	0.439453125	315.21849220415	7.89794921875E-06	0.43939208984375
805	0.43701171875	315.242892204088	6.18896484375E-06	0.436920166015625
806	0.4345703125	315.267292204027	7.1075439453125E-06	0.4344482421875
807	0.43212890625	315.291692203965	5.828857421875E-06	0.431976318359375
808	0.4296875	315.316092203903	5.780029296875E-06	0.4295654296875
809	0.42724609375	315.340492203842	4.0802001953125E-06	0.427154541015625
810	0.4248046875	315.36489220378	3.7078857421875E-06	0.4246826171875
811	0.42236328125	315.389292203719	3.74755859375E-06	0.422271728515625
812	0.419921875	315.413692203657	3.497314453125E-06	0.41986083984375
813	0.41748046875	315.438092203595	3.851318359375E-06	0.417449951171875
814	0.4150390625	315.462492203534	1.6937255859375E-06	0.414947509765625
815	0.41259765625	315.486892203472	2.733154296875E-06	0.412628173828125
816	0.41015625	315.511292203411	1.99981689453125E-06	0.410064697265625
817	0.40771484375	315.535692203349	2.0001220703125E-06	0.40771484375
818	0.4052734375	315.560092203287	1.70989990234375E-06	0.405242919921875
819	0.40283203125	315.584492203226	1.07147216796875E-06	0.40277099609375
820	0.400390625	315.608892203164	9.490966796875E-07	0.400421142578125
821	0.39794921875	315.633292203103	-4.8828125E-07	0.39794921875
822	0.3955078125	315.657692203041	-3.631591796875E-08	0.395538330078125
823	0.39306640625	315.682092202979	-1.67022705078125E-06	0.39306640625
824	0.390625	315.706492202918	-9.2864990234375E-07	0.390716552734375
825	0.38818359375	315.730892202856	-1.8109130859375E-06	0.38818359375
826	0.3857421875	315.755292202795	-1.18438720703125E-06	0.38580322265625
827	0.38330078125	315.779692202733	-1.61834716796875E-06	0.38330078125
828	0.380859375	315.804092202671	-3.20526123046875E-06	0.380950927734375
829	0.37841796875	315.82849220261	-2.31964111328125E-06	0.37841796875
830	0.3759765625	315.852892202548	-3.25439453125E-06	0.37603759765625
831	0.37353515625	315.877292202487	-2.04132080078125E-06	0.373626708984375
832	0.37109375	315.901692202425	-3.58734130859375E-06	0.371124267578125
833	0.36865234375	315.926092202363	-3.9947509765625E-06	0.368743896484375
834	0.3662109375	315.950492202302	-4.5562744140625E-06	0.36627197265625
835	0.36376953125	315.97489220224	-5.28564453125E-06	0.363800048828125
836	0.361328125	315.999292202178	-4.7760009765625E-06	0.361358642578125
837	0.35888671875	316.023692202117	-6.15234375E-06	0.358856201171875
838	0.3564453125	316.048092202055	-5.731201171875E-06	0.35650634765625
839	0.35400390625	316.072492201994	-7.4432373046875E-06	0.354034423828125
840	0.3515625	316.096892201932	-6.9549560546875E-06	0.351654052734375
841	0.34912109375	316.12129220187	-7.8643798828125E-06	0.34918212890625
842	0.3466796875	316.145692201809	-8.0352783203125E-06	0.3468017578125
843	0.34423828125	316.170092201747	-7.36083984375E-06	0.344268798828125
844	0.341796875	316.194492201686	-8.6883544921875E-06	0.34185791015625
845	0.33935546875	316.218892201624	-7.672119140625E-06	0.339385986328125
846	0.3369140625	316.243292201562	-9.4635009765625E-06	0.33697509765625
847	0.33447265625	316.267692201501	-9.0179443359375E-06	0.3345947265625
848	0.33203125	316.292092201439	-9.7015380859375E-06	0.3321533203125
849	0.32958984375	316.316492201378	-9.94873046875E-06	0.3297119140625
850	0.3271484375	316.340892201316	-1.03973388671875E-05	0.32733154296875
851	0.32470703125	316.365292201254	-1.18255615234375E-05	0.32489013671875
852	0.322265625	316.389692201193	-1.0711669921875E-05	0.322418212890625
853	0.31982421875	316.414092201131	-1.19476318359375E-05	0.319915771484375
854	0.3173828125	316.43849220107	-1.09466552734375E-05	0.317535400390625
855	0.31494140625	316.462892201008	-1.24786376953125E-05	0.315093994140625
856	0.3125	316.487292200946	-1.23870849609375E-05	0.31268310546875
857	0.31005859375	316.511692200885	-1.3165283203125E-05	0.3101806640625
858	0.3076171875	316.536092200823	-1.3348388671875E-05	0.3077392578125
859	0.30517578125	316.560492200762	-1.3055419921875E-05	0.305328369140625
860	0.302734375	316.5848922007	-1.45050048828125E-05	0.3028564453125
861	0.30029296875	316.609292200638	-1.3946533203125E-05	0.30047607421875
862	0.2978515625	316.633692200577	-1.45660400390625E-05	0.298004150390625
863	0.29541015625	316.658092200515	-1.42425537109375E-05	0.295654296875
864	0.29296875	316.682492200454	-1.5118408203125E-05	0.29315185546875
865	0.29052734375	316.706892200392	-1.56646728515625E-05	0.290771484375
866	0.2880859375	316.73129220033	-1.53564453125E-05	0.288299560546875
867	0.28564453125	316.755692200269	-1.639404296875E-05	0.285858154296875
868	0.283203125	316.780092200207	-1.58935546875E-05	0.283416748046875
869	0.28076171875	316.804492200146	-1.7596435546875E-05	0.28094482421875
870	0.2783203125	316.828892200084	-1.6302490234375E-05	0.27850341796875
871	0.27587890625	316.853292200022	-1.73980712890625E-05	0.276092529296875
872	0.2734375	316.877692199961	-1.71173095703125E-05	0.273681640625
873	0.27099609375	316.902092199899	-1.7864990234375E-05	0.271209716796875
874	0.2685546875	316.926492199838	-1.89300537109375E-05	0.268829345703125
875	0.26611328125	316.950892199776	-1.85577392578125E-05	0.266387939453125
876	0.263671875	316.975292199714	-1.97021484375E-05	0.263946533203125
877	0.26123046875	316.999692199653	-1.876220703125E-05	0.261474609375
878	0.2587890625	317.024092199591	-2.05474853515625E-05	0.2589111328125
879	0.25634765625	317.04849219953	-1.90948486328125E-05	0.25665283203125
880	0.25390625	317.072892199468	-1.9775390625E-05	0.254180908203125
881	0.25146484375	317.097292199406	-2.034912109375E-05	0.251800537109375
882	0.2490234375	317.121692199345	-2.07550048828125E-05	0.24932861328125
883	0.24658203125	317.146092199283	-2.16217041015625E-05	0.246856689453125
884	0.244140625	317.170492199221	-2.07733154296875E-05	0.24444580078125
885	0.24169921875	317.19489219916	-2.22412109375E-05	0.2420654296875
886	0.2392578125	317.219292199098	-2.12493896484375E-05	0.239532470703125
887	0.23681640625	317.243692199037	-2.23663330078125E-05	0.23712158203125
888	0.234375	317.268092198975	-2.24456787109375E-05	0.234649658203125
889	0.23193359375	317.292492198913	-2.298583984375E-05	0.232269287109375
890	0.2294921875	317.316892198852	-2.38800048828125E-05	0.229827880859375
891	0.22705078125	317.34129219879	-2.30682373046875E-05	0.22735595703125
892	0.224609375	317.365692198729	-2.48748779296875E-05	0.224945068359375
893	0.22216796875	317.390092198667	-2.36968994140625E-05	0.222564697265625
894	0.2197265625	317.414492198605	-2.474365234375E-05	0.220123291015625
895	0.21728515625	317.438892198544	-2.4591064453125E-05	0.217681884765625
896	0.21484375	317.463292198482	-2.50091552734375E-05	0.215240478515625
897	0.21240234375	317.487692198421	-2.54547119140625E-05	0.212799072265625
898	0.2099609375	317.512092198359	-2.52166748046875E-05	0.2103271484375
899	0.20751953125	317.536492198297	-2.62054443359375E-05	0.207916259765625
900	0.205078125	317.560892198236	-2.52899169921875E-05	0.2054443359375
901	0.20263671875	317.585292198174	-2.69134521484375E-05	0.2030029296875
902	0.2001953125	317.609692198113	-2.64068603515625E-05	0.200653076171875
903	0.19775390625	317.634092198051	-2.71636962890625E-05	0.198150634765625
904	0.1953125	317.658492197989	-2.74566650390625E-05	0.19580078125
905	0.19287109375	317.682892197928	-2.724609375E-05	0.193267822265625
906	0.1904296875	317.707292197866	-2.86834716796875E-05	0.19085693359375
907	0.18798828125	317.731692197805	-2.81280517578125E-05	0.188446044921875
908	0.185546875	317.756092197743	-2.9412841796875E-05	0.186004638671875
909	0.18310546875	317.780492197681	-2.862548828125E-05	0.183563232421875
910	0.1806640625	317.80489219762	-2.99224853515625E-05	0.181121826171875
911	0.17822265625	317.829292197558	-2.97454833984375E-05	0.178741455078125
912	0.17578125	317.853692197497	-2.99957275390625E-05	0.176239013671875
913	0.17333984375	317.878092197435	-3.079833984375E-05	0.173858642578125
914	0.1708984375	317.902492197373	-3.0340576171875E-05	0.1708984375
915	0.16845703125	317.926892197312	-3.184814453125E-05	0.168548583984375
916	0.166015625	317.95129219725	-3.13140869140625E-05	0.166046142578125
917	0.16357421875	317.975692197189	-3.24798583984375E-05	0.163665771484375
918	0.1611328125	318.000092197127	-3.19610595703125E-05	0.16119384765625
919	0.15869140625	318.024492197065	-3.25775146484375E-05	0.158782958984375
920	0.15625	318.048892197004	-3.270263671875E-05	0.156341552734375
921	0.15380859375	318.073292196942	-3.2110595703125E-05	0.153900146484375
922	0.1513671875	318.097692196881	-3.355712890625E-05	0.151519775390625
923	0.14892578125	318.122092196819	-3.2476806640625E-05	0.14898681640625
924	0.146484375	318.146492196757	-3.397216796875E-05	0.146575927734375
925	0.14404296875	318.170892196696	-3.3160400390625E-05	0.144134521484375
926	0.1416015625	318.195292196634	-3.39385986328125E-05	0.141693115234375
927	0.13916015625	318.219692196573	-3.4222412109375E-05	0.1392822265625
928	0.13671875	318.244092196511	-3.42529296875E-05	0.13677978515625
929	0.13427734375	318.268492196449	-3.5284423828125E-05	0.134429931640625
930	0.1318359375	318.292892196388	-3.42926025390625E-05	0.131927490234375
931	0.12939453125	318.317292196326	-3.57757568359375E-05	0.1295166015625
932	0.126953125	318.341692196264	-3.50189208984375E-05	0.127044677734375
933	0.12451171875	318.366092196203	-3.634033203125E-05	0.1246337890625
934	0.1220703125	318.390492196141	-3.61663818359375E-05	0.1221923828125
935	0.11962890625	318.41489219608	-3.65264892578125E-05	0.119720458984375
936	0.1171875	318.439292196018	-3.6944580078125E-05	0.117279052734375
937	0.11474609375	318.463692195956	-3.65966796875E-05	0.1148681640625
938	0.1123046875	318.488092195895	-3.8092041015625E-05	0.11236572265625
939	0.10986328125	318.512492195833	-3.7237548828125E-05	0.1099853515625
940	0.107421875	318.536892195772	-3.84368896484375E-05	0.107574462890625
941	0.10498046875	318.56129219571	-3.800048828125E-05	0.105133056640625
942	0.1025390625	318.585692195648	-3.90777587890625E-05	0.102691650390625
943	0.10009765625	318.610092195587	-3.94378662109375E-05	0.1002197265625
944	0.09765625	318.634492195525	-3.9361572265625E-05	0.097808837890625
945	0.09521484375	318.658892195464	-4.04510498046875E-05	0.095367431640625
946	0.0927734375	318.683292195402	-3.97064208984375E-05	0.092926025390625
947	0.09033203125	318.70769219534	-4.13116455078125E-05	0.090423583984375
948	0.087890625	318.732092195279	-4.04083251953125E-05	0.0880126953125
949	0.08544921875	318.756492195217	-4.14215087890625E-05	0.0855712890625
950	0.0830078125	318.780892195156	-4.12689208984375E-05	0.083099365234375
951	0.08056640625	318.805292195094	-4.16473388671875E-05	0.0806884765625
952	0.078125	318.829692195032	-4.2547607421875E-05	0.0782470703125
953	0.07568359375	318.854092194971	-4.18701171875E-05	0.0758056640625
954	0.0732421875	318.878492194909	-4.317626953125E-05	0.073333740234375
955	0.07080078125	318.902892194848	-4.2193603515625E-05	0.0709228515625
956	0.068359375	318.927292194786	-4.35394287109375E-05	0.068511962890625
957	0.06591796875	318.951692194724	-4.3218994140625E-05	0.066009521484375
958	0.0634765625	318.976092194663	-4.3731689453125E-05	0.0635986328125
959	0.06103515625	319.000492194601	-4.41619873046875E-05	0.06121826171875
960	0.05859375	319.02489219454	-4.3927001953125E-05	0.058746337890625
961	0.05615234375	319.049292194478	-4.52606201171875E-05	0.056304931640625
962	0.0537109375	319.073692194416	-4.42962646484375E-05	0.0538330078125
963	0.05126953125	319.098092194355	-4.56878662109375E-05	0.0513916015625
964	0.048828125	319.122492194293	-4.4927978515625E-05	0.048974609375
965	0.04638671875	319.146892194232	-4.61181640625E-05	0.046563720703125
966	0.0439453125	319.17129219417	-4.62860107421875E-05	0.044085693359375
967	0.04150390625	319.195692194108	-4.632568359375E-05	0.0416595458984375
968	0.0390625	319.220092194047	-4.72137451171875E-05	0.0392059326171875
969	0.03662109375	319.244492193985	-4.6514892578125E-05	0.0367462158203125
970	0.0341796875	319.268892193924	-4.81170654296875E-05	0.0343170166015625
971	0.03173828125	319.293292193862	-4.71923828125E-05	0.031884765625
972	0.029296875	319.3176921938	-4.83245849609375E-05	0.029449462890625
973	0.02685546875	319.342092193739	-4.8040771484375E-05	0.0270172119140625
974	0.0244140625	319.366492193677	-4.8583984375E-05	0.0245941162109375
975	0.02197265625	319.390892193616	-4.931640625E-05	0.0221221923828125
976	0.01953125	319.415292193554	-4.8828125E-05	0.01968994140625
977	0.01708984375	319.439692193492	-5.0079345703125E-05	0.017254638671875
978	0.0146484375	319.464092193431	-4.9072265625E-05	0.014813232421875
979	0.01220703125	319.488492193369	-5.06591796875E-05	0.012353515625
980	0.009765625	319.512892193307	-4.998779296875E-05	0.00991210937500001
981	0.00732421875	319.537292193246	-5.072021484375E-05	0.00746765136718749
982	0.0048828125	319.561692193184	-5.0872802734375E-05	0.005047607421875
983	0.00244140625	319.586092193123	-5.084228515625E-05	0.00260314941406251
984	0	319.610492193061	-5.1971435546875E-05	0.000143432617187494
985	0.00244140625	319.634892192999	-5.047607421875E-05	0.002593994140625
986	0.0048828125	319.659292192938	-5.1239013671875E-05	0.005035400390625
987	0.00732421875	319.683692192876	-4.9713134765625E-05	0.0074951171875
988	0.009765625	319.708092192815	-5.0384521484375E-05	0.00992431640624999
989	0.01220703125	319.732492192753	-4.96826171875E-05	0.012347412109375
990	0.0146484375	319.756892192691	-4.931640625E-05	0.0147918701171875
991	0.01708984375	319.78129219263	-4.9407958984375E-05	0.0172332763671875
992	0.01953125	319.805692192568	-4.833984375E-05	0.019683837890625
993	0.02197265625	319.830092192507	-4.9224853515625E-05	0.0221160888671875
