Index	Potential applied (V)	Time (s)	WE(1).Current (A)	WE(1).Potential (V)
1	0.00244140625	6.42297398378355	-5.1025390625E-05	0.0025909423828125
2	0.0048828125	6.44737398372195	-4.949951171875E-05	0.0050384521484375
3	0.00732421875	6.47177398366034	-5.047607421875E-05	0.00748596191406251
4	0.009765625	6.49617398359874	-4.91943359375E-05	0.00991210937500001
5	0.01220703125	6.52057398353713	-4.9468994140625E-05	0.0123504638671875
6	0.0146484375	6.54497398347553	-4.8919677734375E-05	0.014794921875
7	0.01708984375	6.56937398341393	-4.8492431640625E-05	0.0172515869140625
8	0.01953125	6.59377398335232	-4.8956298828125E-05	0.019696044921875
9	0.02197265625	6.61817398329072	-4.7637939453125E-05	0.0221343994140625
10	0.0244140625	6.64257398322911	-4.835205078125E-05	0.0245635986328125
11	0.02685546875	6.66697398316751	-4.6759033203125E-05	0.027020263671875
12	0.029296875	6.6913739831059	-4.75494384765625E-05	0.0294464111328125
13	0.03173828125	6.7157739830443	-4.6636962890625E-05	0.0318817138671875
14	0.0341796875	6.7401739829827	-4.6429443359375E-05	0.034326171875
15	0.03662109375	6.76457398292109	-4.61578369140625E-05	0.036773681640625
16	0.0390625	6.78897398285949	-4.52728271484375E-05	0.0392242431640625
17	0.04150390625	6.81337398279788	-4.59747314453125E-05	0.0416717529296875
18	0.0439453125	6.83777398273628	-4.44122314453125E-05	0.0441253662109375
19	0.04638671875	6.86217398267468	-4.50439453125E-05	0.046551513671875
20	0.048828125	6.88657398261307	-4.36004638671875E-05	0.048968505859375
21	0.05126953125	6.91097398255147	-4.4140625E-05	0.0513916015625
22	0.0537109375	6.93537398248986	-4.35943603515625E-05	0.053802490234375
23	0.05615234375	6.95977398242826	-4.30267333984375E-05	0.0562744140625
24	0.05859375	6.98417398236666	-4.32220458984375E-05	0.058746337890625
25	0.06103515625	7.00857398230505	-4.19403076171875E-05	0.0611572265625
26	0.0634765625	7.03297398224345	-4.288330078125E-05	0.063629150390625
27	0.06591796875	7.05737398218184	-4.134521484375E-05	0.0660400390625
28	0.068359375	7.08177398212024	-4.1998291015625E-05	0.068511962890625
29	0.07080078125	7.10617398205864	-4.08905029296875E-05	0.070892333984375
30	0.0732421875	7.13057398199703	-4.10491943359375E-05	0.073394775390625
31	0.07568359375	7.15497398193543	-4.09027099609375E-05	0.0758056640625
32	0.078125	7.17937398187382	-4.0167236328125E-05	0.0782470703125
33	0.08056640625	7.20377398181222	-4.06097412109375E-05	0.0806884765625
34	0.0830078125	7.22817398175061	-3.9202880859375E-05	0.083099365234375
35	0.08544921875	7.25257398168901	-4.01123046875E-05	0.085540771484375
36	0.087890625	7.27697398162741	-3.88275146484375E-05	0.087982177734375
37	0.09033203125	7.3013739815658	-3.91693115234375E-05	0.0904541015625
38	0.0927734375	7.3257739815042	-3.84307861328125E-05	0.0928955078125
39	0.09521484375	7.35017398144259	-3.84307861328125E-05	0.0953369140625
40	0.09765625	7.37457398138099	-3.8702392578125E-05	0.097808837890625
41	0.10009765625	7.39897398131939	-3.75732421875E-05	0.100189208984375
42	0.1025390625	7.42337398125778	-3.83209228515625E-05	0.10260009765625
43	0.10498046875	7.44777398119618	-3.67767333984375E-05	0.1051025390625
44	0.107421875	7.47217398113457	-3.7591552734375E-05	0.107513427734375
45	0.10986328125	7.49657398107297	-3.61785888671875E-05	0.10992431640625
46	0.1123046875	7.52097398101137	-3.6358642578125E-05	0.1124267578125
47	0.11474609375	7.54537398094976	-3.5919189453125E-05	0.1148681640625
48	0.1171875	7.56977398088816	-3.54095458984375E-05	0.1173095703125
49	0.11962890625	7.59417398082655	-3.580322265625E-05	0.11968994140625
50	0.1220703125	7.61857398076495	-3.42437744140625E-05	0.1221923828125
51	0.12451171875	7.64297398070335	-3.50067138671875E-05	0.1246337890625
52	0.126953125	7.66737398064174	-3.3563232421875E-05	0.127044677734375
53	0.12939453125	7.69177398058014	-3.41339111328125E-05	0.1295166015625
54	0.1318359375	7.71617398051853	-3.33221435546875E-05	0.13189697265625
55	0.13427734375	7.74057398045693	-3.3087158203125E-05	0.1343994140625
56	0.13671875	7.76497398039533	-3.28155517578125E-05	0.1368408203125
57	0.13916015625	7.78937398033372	-3.2000732421875E-05	0.139251708984375
58	0.1416015625	7.81377398027212	-3.24188232421875E-05	0.141693115234375
59	0.14404296875	7.83817398021051	-3.096923828125E-05	0.14410400390625
60	0.146484375	7.86257398014891	-3.18023681640625E-05	0.1466064453125
61	0.14892578125	7.8869739800873	-3.02459716796875E-05	0.149017333984375
62	0.1513671875	7.9113739800257	-3.06610107421875E-05	0.1514892578125
63	0.15380859375	7.9357739799641	-3.03314208984375E-05	0.153900146484375
64	0.15625	7.96017397990249	-2.9864501953125E-05	0.156341552734375
65	0.15869140625	7.98457397984089	-2.99530029296875E-05	0.158721923828125
66	0.1611328125	8.00897397977928	-2.87017822265625E-05	0.161285400390625
67	0.16357421875	8.03337397971768	-2.96630859375E-05	0.16363525390625
68	0.166015625	8.05777397965608	-2.80181884765625E-05	0.166107177734375
69	0.16845703125	8.08217397959447	-2.87353515625E-05	0.16851806640625
70	0.1708984375	8.10657397953287	-2.77496337890625E-05	0.170989990234375
71	0.17333984375	8.13097397947126	-2.80029296875E-05	0.173431396484375
72	0.17578125	8.15537397940966	-2.7789306640625E-05	0.17584228515625
73	0.17822265625	8.17977397934806	-2.6910400390625E-05	0.178314208984375
74	0.1806640625	8.20417397928645	-2.73406982421875E-05	0.1807861328125
75	0.18310546875	8.22857397922485	-2.62237548828125E-05	0.18316650390625
76	0.185546875	8.25297397916324	-2.68310546875E-05	0.185638427734375
77	0.18798828125	8.27737397910164	-2.5457763671875E-05	0.188018798828125
78	0.1904296875	8.30177397904004	-2.53173828125E-05	0.190521240234375
79	0.19287109375	8.32617397897843	-2.5E-05	0.19293212890625
80	0.1953125	8.35057397891683	-2.46185302734375E-05	0.195404052734375
81	0.19775390625	8.37497397885522	-2.4853515625E-05	0.19781494140625
82	0.2001953125	8.39937397879362	-2.352294921875E-05	0.200286865234375
83	0.20263671875	8.42377397873202	-2.42431640625E-05	0.20269775390625
84	0.205078125	8.44817397867041	-2.27386474609375E-05	0.205108642578125
85	0.20751953125	8.47257397860881	-2.32574462890625E-05	0.20751953125
86	0.2099609375	8.4969739785472	-2.2418212890625E-05	0.21002197265625
87	0.21240234375	8.5213739784856	-2.193603515625E-05	0.212432861328125
88	0.21484375	8.54577397842399	-2.17987060546875E-05	0.214935302734375
89	0.21728515625	8.57017397836239	-2.13775634765625E-05	0.21734619140625
90	0.2197265625	8.59457397830079	-2.1575927734375E-05	0.219757080078125
91	0.22216796875	8.61897397823918	-1.99493408203125E-05	0.222259521484375
92	0.224609375	8.64337397817758	-2.1002197265625E-05	0.224639892578125
93	0.22705078125	8.66777397811597	-1.9451904296875E-05	0.227081298828125
94	0.2294921875	8.69217397805437	-2.03826904296875E-05	0.229522705078125
95	0.23193359375	8.71657397799277	-1.9244384765625E-05	0.232025146484375
96	0.234375	8.74097397793116	-1.9085693359375E-05	0.23443603515625
97	0.23681640625	8.76537397786956	-1.91925048828125E-05	0.23681640625
98	0.2392578125	8.78977397780795	-1.76849365234375E-05	0.239349365234375
99	0.24169921875	8.81417397774635	-1.86737060546875E-05	0.24176025390625
100	0.244140625	8.83857397768475	-1.73492431640625E-05	0.244232177734375
101	0.24658203125	8.86297397762314	-1.79046630859375E-05	0.24664306640625
102	0.2490234375	8.88737397756154	-1.66900634765625E-05	0.249114990234375
103	0.25146484375	8.91177397749993	-1.7095947265625E-05	0.25152587890625
104	0.25390625	8.93617397743833	-1.6754150390625E-05	0.253997802734375
105	0.25634765625	8.96057397737673	-1.58416748046875E-05	0.25634765625
106	0.2587890625	8.98497397731512	-1.61285400390625E-05	0.25885009765625
107	0.26123046875	9.00937397725352	-1.4794921875E-05	0.261260986328125
108	0.263671875	9.03377397719191	-1.6162109375E-05	0.263671875
109	0.26611328125	9.05817397713031	-1.48284912109375E-05	0.266143798828125
110	0.2685546875	9.08257397706871	-1.53411865234375E-05	0.26861572265625
111	0.27099609375	9.1069739770071	-1.4422607421875E-05	0.271026611328125
112	0.2734375	9.1313739769455	-1.41204833984375E-05	0.27349853515625
113	0.27587890625	9.15577397688389	-1.4013671875E-05	0.27593994140625
114	0.2783203125	9.18017397682229	-1.26678466796875E-05	0.27838134765625
115	0.28076171875	9.20457397676068	-1.297607421875E-05	0.28082275390625
116	0.283203125	9.22897397669908	-1.15264892578125E-05	0.283233642578125
117	0.28564453125	9.25337397663748	-1.2225341796875E-05	0.285675048828125
118	0.2880859375	9.27777397657587	-1.12213134765625E-05	0.288116455078125
119	0.29052734375	9.30217397651427	-1.1431884765625E-05	0.29052734375
120	0.29296875	9.32657397645266	-1.11480712890625E-05	0.29302978515625
121	0.29541015625	9.35097397639106	-1.06658935546875E-05	0.295440673828125
122	0.2978515625	9.37537397632946	-1.0626220703125E-05	0.2978515625
123	0.30029296875	9.39977397626785	-9.48486328125E-06	0.30029296875
124	0.302734375	9.42417397620625	-1.016845703125E-05	0.302734375
125	0.30517578125	9.44857397614464	-8.2916259765625E-06	0.305206298828125
126	0.3076171875	9.47297397608304	-8.941650390625E-06	0.3076171875
127	0.31005859375	9.49737397602144	-7.8643798828125E-06	0.31005859375
128	0.3125	9.52177397595983	-8.1695556640625E-06	0.312530517578125
129	0.31494140625	9.54617397589823	-7.537841796875E-06	0.314971923828125
130	0.3173828125	9.57057397583662	-7.757568359375E-06	0.317535400390625
131	0.31982421875	9.59497397577502	-8.3282470703125E-06	0.31988525390625
132	0.322265625	9.61937397571342	-7.012939453125E-06	0.32232666015625
133	0.32470703125	9.64377397565181	-7.4066162109375E-06	0.32470703125
134	0.3271484375	9.66817397559021	-5.8135986328125E-06	0.327239990234375
135	0.32958984375	9.6925739755286	-6.170654296875E-06	0.32958984375
136	0.33203125	9.716973975467	-5.67626953125E-06	0.332061767578125
137	0.33447265625	9.74137397540539	-5.5145263671875E-06	0.33441162109375
138	0.3369140625	9.76577397534379	-5.926513671875E-06	0.337005615234375
139	0.33935546875	9.79017397528219	-4.6112060546875E-06	0.33935546875
140	0.341796875	9.81457397522058	-4.937744140625E-06	0.341796875
141	0.34423828125	9.83897397515898	-3.01513671875E-06	0.344329833984375
142	0.3466796875	9.86337397509737	-4.1900634765625E-06	0.346771240234375
143	0.34912109375	9.88777397503577	-3.26934814453125E-06	0.349273681640625
144	0.3515625	9.91217397497417	-3.43017578125E-06	0.351593017578125
145	0.35400390625	9.93657397491256	-3.0157470703125E-06	0.35406494140625
146	0.3564453125	9.96097397485096	-1.13311767578125E-06	0.356536865234375
147	0.35888671875	9.98537397478935	-2.0135498046875E-06	0.358978271484375
148	0.361328125	10.0097739747278	-3.4332275390625E-07	0.361297607421875
149	0.36376953125	10.0341739746661	-1.0028076171875E-06	0.363739013671875
150	0.3662109375	10.0585739746045	-6.683349609375E-08	0.36627197265625
151	0.36865234375	10.0829739745429	3.90625E-08	0.36865234375
152	0.37109375	10.1073739744813	6.536865234375E-07	0.37109375
153	0.37353515625	10.1317739744197	6.9610595703125E-07	0.37347412109375
154	0.3759765625	10.1561739743581	5.8441162109375E-07	0.375946044921875
155	0.37841796875	10.1805739742965	1.74102783203125E-06	0.378021240234375
156	0.380859375	10.2049739742349	1.40228271484375E-06	0.380279541015625
157	0.38330078125	10.2293739741733	2.75848388671875E-06	0.38287353515625
158	0.3857421875	10.2537739741117	1.63787841796875E-06	0.384765625
159	0.38818359375	10.2781739740501	3.79364013671875E-06	0.387664794921875
160	0.390625	10.3025739739885	3.3905029296875E-06	0.39056396484375
161	0.39306640625	10.3269739739269	3.9154052734375E-06	0.392974853515625
162	0.3955078125	10.3513739738653	4.21142578125E-06	0.395416259765625
163	0.39794921875	10.3757739738037	4.022216796875E-06	0.397918701171875
164	0.400390625	10.4001739737421	5.3497314453125E-06	0.4002685546875
165	0.40283203125	10.4245739736805	5.0201416015625E-06	0.402740478515625
166	0.4052734375	10.4489739736189	6.60400390625E-06	0.405181884765625
167	0.40771484375	10.4733739735573	6.2591552734375E-06	0.407562255859375
168	0.41015625	10.4977739734957	7.4920654296875E-06	0.4100341796875
169	0.41259765625	10.5221739734341	6.4483642578125E-06	0.4124755859375
170	0.4150390625	10.5465739733725	6.9976806640625E-06	0.414886474609375
171	0.41748046875	10.5709739733109	8.404541015625E-06	0.417388916015625
172	0.419921875	10.5953739732493	7.8826904296875E-06	0.419830322265625
173	0.42236328125	10.6197739731876	9.918212890625E-06	0.422149658203125
174	0.4248046875	10.644173973126	9.454345703125E-06	0.42462158203125
175	0.42724609375	10.6685739730644	1.14776611328125E-05	0.427093505859375
176	0.4296875	10.6929739730028	1.0931396484375E-05	0.42950439453125
177	0.43212890625	10.7173739729412	1.20025634765625E-05	0.4320068359375
178	0.4345703125	10.7417739728796	1.302490234375E-05	0.434326171875
179	0.43701171875	10.766173972818	1.27349853515625E-05	0.43682861328125
180	0.439453125	10.7905739727564	1.40838623046875E-05	0.43914794921875
181	0.44189453125	10.8149739726948	1.33453369140625E-05	0.441680908203125
182	0.4443359375	10.8393739726332	1.54571533203125E-05	0.44403076171875
183	0.44677734375	10.8637739725716	1.44012451171875E-05	0.446502685546875
184	0.44921875	10.88817397251	1.558837890625E-05	0.448944091796875
185	0.45166015625	10.9125739724484	1.6656494140625E-05	0.451324462890625
186	0.4541015625	10.9369739723868	1.7071533203125E-05	0.453826904296875
187	0.45654296875	10.9613739723252	1.7626953125E-05	0.456207275390625
188	0.458984375	10.9857739722636	1.7950439453125E-05	0.458648681640625
189	0.46142578125	11.010173972202	2.071533203125E-05	0.461029052734375
190	0.4638671875	11.0345739721404	1.983642578125E-05	0.463409423828125
191	0.46630859375	11.0589739720788	2.07977294921875E-05	0.46588134765625
192	0.46875	11.0833739720172	2.0452880859375E-05	0.468231201171875
193	0.47119140625	11.1077739719556	2.23388671875E-05	0.4708251953125
194	0.4736328125	11.132173971894	2.24273681640625E-05	0.47320556640625
195	0.47607421875	11.1565739718324	2.21954345703125E-05	0.47564697265625
196	0.478515625	11.1809739717708	2.35595703125E-05	0.47796630859375
197	0.48095703125	11.2053739717092	2.45391845703125E-05	0.480438232421875
198	0.4833984375	11.2297739716475	2.65228271484375E-05	0.4827880859375
199	0.48583984375	11.2541739715859	2.633056640625E-05	0.485198974609375
200	0.48828125	11.2785739715243	2.7362060546875E-05	0.487640380859375
201	0.49072265625	11.3029739714627	2.78350830078125E-05	0.490020751953125
202	0.4931640625	11.3273739714011	2.8826904296875E-05	0.4925537109375
203	0.49560546875	11.3517739713395	3.0548095703125E-05	0.49493408203125
204	0.498046875	11.3761739712779	3.0078125E-05	0.497955322265625
205	0.50048828125	11.4005739712163	3.1878662109375E-05	0.5003662109375
206	0.5029296875	11.4249739711547	3.194580078125E-05	0.5028076171875
207	0.50537109375	11.4493739710931	3.3123779296875E-05	0.50531005859375
208	0.5078125	11.4737739710315	3.2720947265625E-05	0.5076904296875
209	0.51025390625	11.4981739709699	3.4051513671875E-05	0.510101318359375
210	0.5126953125	11.5225739709083	3.54278564453125E-05	0.512542724609375
211	0.51513671875	11.5469739708467	3.634033203125E-05	0.514984130859375
212	0.517578125	11.5713739707851	3.7762451171875E-05	0.5174560546875
213	0.52001953125	11.5957739707235	3.68377685546875E-05	0.519866943359375
214	0.5224609375	11.6201739706619	3.93035888671875E-05	0.5223388671875
215	0.52490234375	11.6445739706003	3.90838623046875E-05	0.52484130859375
216	0.52734375	11.6689739705387	4.134521484375E-05	0.52728271484375
217	0.52978515625	11.6933739704771	4.193115234375E-05	0.529693603515625
218	0.5322265625	11.7177739704155	4.2034912109375E-05	0.532135009765625
219	0.53466796875	11.7421739703539	4.36065673828125E-05	0.534576416015625
220	0.537109375	11.7665739702923	4.3939208984375E-05	0.537017822265625
221	0.53955078125	11.7909739702307	4.58984375E-05	0.5394287109375
222	0.5419921875	11.815373970169	4.5440673828125E-05	0.541839599609375
223	0.54443359375	11.8397739701074	4.7650146484375E-05	0.5443115234375
224	0.546875	11.8641739700458	4.8370361328125E-05	0.546722412109375
225	0.54931640625	11.8885739699842	4.9957275390625E-05	0.549163818359375
226	0.5517578125	11.9129739699226	5.06591796875E-05	0.551666259765625
227	0.55419921875	11.937373969861	5.17578125E-05	0.55401611328125
228	0.556640625	11.9617739697994	5.2520751953125E-05	0.5565185546875
229	0.55908203125	11.9861739697378	5.40771484375E-05	0.558929443359375
230	0.5615234375	12.0105739696762	5.633544921875E-05	0.5614013671875
231	0.56396484375	12.0349739696146	5.6121826171875E-05	0.563751220703125
232	0.56640625	12.059373969553	5.8349609375E-05	0.566253662109375
233	0.56884765625	12.0837739694914	5.8746337890625E-05	0.568603515625
234	0.5712890625	12.1081739694298	6.072998046875E-05	0.571136474609375
235	0.57373046875	12.1325739693682	6.1859130859375E-05	0.573577880859375
236	0.576171875	12.1569739693066	6.2164306640625E-05	0.576019287109375
237	0.57861328125	12.181373969245	6.365966796875E-05	0.57843017578125
238	0.5810546875	12.2057739691834	6.494140625E-05	0.580902099609375
239	0.58349609375	12.2301739691218	6.8450927734375E-05	0.58331298828125
240	0.5859375	12.2545739690602	6.8817138671875E-05	0.585723876953125
241	0.58837890625	12.2789739689986	7.0892333984375E-05	0.58819580078125
242	0.5908203125	12.303373968937	7.171630859375E-05	0.59063720703125
243	0.59326171875	12.3277739688754	7.3944091796875E-05	0.593109130859375
244	0.595703125	12.3521739688138	7.6416015625E-05	0.595458984375
245	0.59814453125	12.3765739687522	7.6568603515625E-05	0.597930908203125
246	0.6005859375	12.4009739686906	7.9498291015625E-05	0.600372314453125
247	0.60302734375	12.4253739686289	8.10546875E-05	0.602813720703125
248	0.60546875	12.4497739685673	8.3587646484375E-05	0.605255126953125
249	0.60791015625	12.4741739685057	8.50830078125E-05	0.60772705078125
250	0.6103515625	12.4985739684441	8.7615966796875E-05	0.610137939453125
251	0.61279296875	12.5229739683825	8.9813232421875E-05	0.612548828125
252	0.615234375	12.5473739683209	8.9599609375E-05	0.614959716796875
253	0.61767578125	12.5717739682593	9.1522216796875E-05	0.617401123046875
254	0.6201171875	12.5961739681977	9.3353271484375E-05	0.619873046875
255	0.62255859375	12.6205739681361	9.6649169921875E-05	0.622314453125
256	0.625	12.6449739680745	9.8785400390625E-05	0.624725341796875
257	0.62744140625	12.6693739680129	0.000102264404296875	0.627227783203125
258	0.6298828125	12.6937739679513	0.000104156494140625	0.62957763671875
259	0.63232421875	12.7181739678897	0.000106842041015625	0.632080078125
260	0.634765625	12.7425739678281	0.000108306884765625	0.634490966796875
261	0.63720703125	12.7669739677665	0.0001104736328125	0.636962890625
262	0.6396484375	12.7913739677049	0.000112518310546875	0.63934326171875
263	0.64208984375	12.8157739676433	0.000113922119140625	0.641815185546875
264	0.64453125	12.8401739675817	0.000118621826171875	0.644195556640625
265	0.64697265625	12.8645739675201	0.000119140625	0.646697998046875
266	0.6494140625	12.8889739674585	0.00012322998046875	0.64910888671875
267	0.65185546875	12.9133739673969	0.00012579345703125	0.651580810546875
268	0.654296875	12.9377739673353	0.00012921142578125	0.653900146484375
269	0.65673828125	12.9621739672737	0.000131103515625	0.656341552734375
270	0.6591796875	12.9865739672121	0.0001329345703125	0.6588134765625
271	0.66162109375	13.0109739671504	0.00013702392578125	0.6612548828125
272	0.6640625	13.0353739670888	0.00013958740234375	0.663665771484375
273	0.66650390625	13.0597739670272	0.000143280029296875	0.66607666015625
274	0.6689453125	13.0841739669656	0.0001455078125	0.668548583984375
275	0.67138671875	13.108573966904	0.0001502685546875	0.670989990234375
276	0.673828125	13.1329739668424	0.0001533203125	0.673370361328125
277	0.67626953125	13.1573739667808	0.000156097412109375	0.67584228515625
278	0.6787109375	13.1817739667192	0.000161865234375	0.678253173828125
279	0.68115234375	13.2061739666576	0.000163177490234375	0.680694580078125
280	0.68359375	13.230573966596	0.00016802978515625	0.68310546875
281	0.68603515625	13.2549739665344	0.000171142578125	0.685546875
282	0.6884765625	13.2793739664728	0.000174530029296875	0.688018798828125
283	0.69091796875	13.3037739664112	0.000178009033203125	0.69036865234375
284	0.693359375	13.3281739663496	0.000181793212890625	0.692840576171875
285	0.69580078125	13.352573966288	0.00018572998046875	0.695281982421875
286	0.6982421875	13.3769739662264	0.00018927001953125	0.69775390625
287	0.70068359375	13.4013739661648	0.000195098876953125	0.700103759765625
288	0.703125	13.4257739661032	0.0001976318359375	0.70257568359375
289	0.70556640625	13.4501739660416	0.00020294189453125	0.704986572265625
290	0.7080078125	13.47457396598	0.000209228515625	0.707366943359375
291	0.71044921875	13.4989739659184	0.000212921142578125	0.7098388671875
292	0.712890625	13.5233739658568	0.00021856689453125	0.712188720703125
293	0.71533203125	13.5477739657952	0.00022296142578125	0.71466064453125
294	0.7177734375	13.5721739657336	0.000227264404296875	0.71710205078125
295	0.72021484375	13.596573965672	0.000230712890625	0.719512939453125
296	0.72265625	13.6209739656103	0.000237060546875	0.721923828125
297	0.72509765625	13.6453739655487	0.0002410888671875	0.724334716796875
298	0.7275390625	13.6697739654871	0.00024774169921875	0.726837158203125
299	0.72998046875	13.6941739654255	0.00025299072265625	0.729217529296875
300	0.732421875	13.7185739653639	0.000258087158203125	0.731658935546875
301	0.73486328125	13.7429739653023	0.00026385498046875	0.73406982421875
302	0.7373046875	13.7673739652407	0.000269561767578125	0.736480712890625
303	0.73974609375	13.7917739651791	0.00027423095703125	0.738922119140625
304	0.7421875	13.8161739651175	0.000279388427734375	0.7413330078125
305	0.74462890625	13.8405739650559	0.00028619384765625	0.7437744140625
306	0.7470703125	13.8649739649943	0.00029132080078125	0.746185302734375
307	0.74951171875	13.8893739649327	0.000298187255859375	0.748626708984375
308	0.751953125	13.9137739648711	0.000305206298828125	0.7509765625
309	0.75439453125	13.9381739648095	0.00031109619140625	0.75408935546875
310	0.7568359375	13.9625739647479	0.000318084716796875	0.75653076171875
311	0.75927734375	13.9869739646863	0.000322967529296875	0.75775146484375
312	0.76171875	14.0113739646247	0.000334075927734375	0.76080322265625
313	0.76416015625	14.0357739645631	0.000338470458984375	0.7635498046875
314	0.7666015625	14.0601739645015	0.000346893310546875	0.7659912109375
315	0.76904296875	14.0845739644399	0.00035321044921875	0.76812744140625
316	0.771484375	14.1089739643783	0.000360198974609375	0.7708740234375
317	0.77392578125	14.1333739643167	0.000368927001953125	0.7733154296875
318	0.7763671875	14.1577739642551	0.000375762939453125	0.7757568359375
319	0.77880859375	14.1821739641935	0.000384613037109375	0.7781982421875
320	0.78125	14.2065739641318	0.0003927001953125	0.78094482421875
321	0.78369140625	14.2309739640702	0.00040252685546875	0.78277587890625
322	0.7861328125	14.2553739640086	0.000409515380859375	0.78582763671875
323	0.78857421875	14.279773963947	0.000418609619140625	0.7879638671875
324	0.791015625	14.3041739638854	0.000427764892578125	0.789794921875
325	0.79345703125	14.3285739638238	0.000437469482421875	0.7928466796875
326	0.7958984375	14.3529739637622	0.000446563720703125	0.79498291015625
327	0.79833984375	14.3773739637006	0.000456787109375	0.7977294921875
328	0.80078125	14.401773963639	0.000467132568359375	0.79986572265625
329	0.80322265625	14.4261739635774	0.000475860595703125	0.8026123046875
330	0.8056640625	14.4505739635158	0.000486724853515625	0.80474853515625
331	0.80810546875	14.4749739634542	0.000497161865234375	0.80780029296875
332	0.810546875	14.4993739633926	0.0005084228515625	0.80963134765625
333	0.81298828125	14.523773963331	0.0005194091796875	0.8123779296875
334	0.8154296875	14.5481739632694	0.00053009033203125	0.8148193359375
335	0.81787109375	14.5725739632078	0.00054168701171875	0.816650390625
336	0.8203125	14.5969739631462	0.0005523681640625	0.8197021484375
337	0.82275390625	14.6213739630846	0.00056488037109375	0.8221435546875
338	0.8251953125	14.645773963023	0.00057647705078125	0.82427978515625
339	0.82763671875	14.6701739629614	0.0005902099609375	0.8270263671875
340	0.830078125	14.6945739628998	0.00060302734375	0.8294677734375
341	0.83251953125	14.7189739628382	0.0006158447265625	0.83160400390625
342	0.8349609375	14.7433739627766	0.000628662109375	0.8343505859375
343	0.83740234375	14.767773962715	0.00064239501953125	0.836181640625
344	0.83984375	14.7921739626534	0.000657958984375	0.838623046875
345	0.84228515625	14.8165739625917	0.00067169189453125	0.841064453125
346	0.8447265625	14.8409739625301	0.00068756103515625	0.8441162109375
347	0.84716796875	14.8653739624685	0.0007000732421875	0.845947265625
348	0.849609375	14.8897739624069	0.00071624755859375	0.84869384765625
349	0.85205078125	14.9141739623453	0.000731201171875	0.8514404296875
350	0.8544921875	14.9385739622837	0.0007464599609375	0.8538818359375
351	0.85693359375	14.9629739622221	0.00076202392578125	0.8563232421875
352	0.859375	14.9873739621605	0.00078033447265625	0.8587646484375
353	0.86181640625	15.0117739620989	0.00079742431640625	0.860595703125
354	0.8642578125	15.0361739620373	0.0008123779296875	0.86334228515625
355	0.86669921875	15.0605739619757	0.00083099365234375	0.8660888671875
356	0.869140625	15.0849739619141	0.0008489990234375	0.86822509765625
357	0.87158203125	15.1093739618525	0.000865478515625	0.8709716796875
358	0.8740234375	15.1337739617909	0.00088287353515625	0.872802734375
359	0.87646484375	15.1581739617293	0.00090240478515625	0.87554931640625
360	0.87890625	15.1825739616677	0.00092193603515625	0.8782958984375
361	0.88134765625	15.2069739616061	0.000941162109375	0.88043212890625
362	0.8837890625	15.2313739615445	0.000960693359375	0.882568359375
363	0.88623046875	15.2557739614829	0.000980224609375	0.88531494140625
364	0.888671875	15.2801739614213	0.0010015869140625	0.8880615234375
365	0.89111328125	15.3045739613597	0.001021728515625	0.889892578125
366	0.8935546875	15.3289739612981	0.0010430908203125	0.89202880859375
367	0.89599609375	15.3533739612365	0.0010638427734375	0.8953857421875
368	0.8984375	15.3777739611749	0.0010858154296875	0.8978271484375
369	0.90087890625	15.4021739611132	0.00110687255859375	0.9002685546875
370	0.9033203125	15.4265739610516	0.00113067626953125	0.902099609375
371	0.90576171875	15.45097396099	0.001153564453125	0.90484619140625
372	0.908203125	15.4753739609284	0.0011773681640625	0.9075927734375
373	0.91064453125	15.4997739608668	0.001201171875	0.9100341796875
374	0.9130859375	15.5241739608052	0.0012255859375	0.9124755859375
375	0.91552734375	15.5485739607436	0.0012518310546875	0.914306640625
376	0.91796875	15.572973960682	0.0012762451171875	0.9173583984375
377	0.92041015625	15.5973739606204	0.001302490234375	0.919189453125
378	0.9228515625	15.6217739605588	0.0013275146484375	0.921630859375
379	0.92529296875	15.6461739604972	0.00135467529296875	0.92437744140625
380	0.927734375	15.6705739604356	0.00138153076171875	0.9271240234375
381	0.93017578125	15.694973960374	0.00140838623046875	0.92926025390625
382	0.9326171875	15.7193739603124	0.00143646240234375	0.93170166015625
383	0.93505859375	15.7437739602508	0.00146331787109375	0.933837890625
384	0.9375	15.7681739601892	0.00149261474609375	0.9368896484375
385	0.93994140625	15.7925739601276	0.00152130126953125	0.93902587890625
386	0.9423828125	15.816973960066	0.0015509033203125	0.9417724609375
387	0.94482421875	15.8413739600044	0.00158111572265625	0.94390869140625
388	0.947265625	15.8657739599428	0.001611328125	0.9466552734375
389	0.94970703125	15.8901739598812	0.0016424560546875	0.94879150390625
390	0.9521484375	15.9145739598196	0.00167388916015625	0.950927734375
391	0.95458984375	15.938973959758	0.0017059326171875	0.95367431640625
392	0.95703125	15.9633739596964	0.0017376708984375	0.95672607421875
393	0.95947265625	15.9877739596348	0.0017718505859375	0.9588623046875
394	0.9619140625	16.0121739595731	0.0018035888671875	0.96099853515625
395	0.96435546875	16.0365739595115	0.00183807373046875	0.963134765625
396	0.966796875	16.0609739594499	0.00187164306640625	0.965576171875
397	0.96923828125	16.0853739593883	0.001905517578125	0.96832275390625
398	0.9716796875	16.1097739593267	0.0019415283203125	0.9710693359375
399	0.97412109375	16.1341739592651	0.00197662353515625	0.9735107421875
400	0.9765625	16.1585739592035	0.00201385498046875	0.97564697265625
401	0.97900390625	16.1829739591419	0.00204925537109375	0.977783203125
402	0.9814453125	16.2073739590803	0.0020867919921875	0.97991943359375
403	0.98388671875	16.2317739590187	0.0021246337890625	0.9832763671875
404	0.986328125	16.2561739589571	0.002161865234375	0.98541259765625
405	0.98876953125	16.2805739588955	0.00220062255859375	0.9881591796875
406	0.9912109375	16.3049739588339	0.00223968505859375	0.99029541015625
407	0.99365234375	16.3293739587723	0.0022796630859375	0.992431640625
408	0.99609375	16.3537739587107	0.0023187255859375	0.99456787109375
409	0.99853515625	16.3781739586491	0.00235992431640625	0.99761962890625
410	1.0009765625	16.4025739585875	0.0023992919921875	0.999755859375
411	1.00341796875	16.4269739585259	0.00244110107421875	1.00250244140625
412	1.005859375	16.4513739584643	0.0024835205078125	1.0052490234375
413	1.00830078125	16.4757739584027	0.0025250244140625	1.007080078125
414	1.0107421875	16.5001739583411	0.002568359375	1.01043701171875
415	1.01318359375	16.5245739582795	0.00261016845703125	1.011962890625
416	1.015625	16.5489739582179	0.002655029296875	1.014404296875
417	1.01806640625	16.5733739581563	0.00269927978515625	1.01715087890625
418	1.0205078125	16.5977739580946	0.002744140625	1.019287109375
419	1.02294921875	16.622173958033	0.00278900146484375	1.0223388671875
420	1.025390625	16.6465739579714	0.00283477783203125	1.0247802734375
421	1.02783203125	16.6709739579098	0.00288055419921875	1.02691650390625
422	1.0302734375	16.6953739578482	0.00292694091796875	1.02935791015625
423	1.03271484375	16.7197739577866	0.0029742431640625	1.03179931640625
424	1.03515625	16.744173957725	0.00302093505859375	1.03424072265625
425	1.03759765625	16.7685739576634	0.00306976318359375	1.03729248046875
426	1.0400390625	16.7929739576018	0.00311737060546875	1.038818359375
427	1.04248046875	16.8173739575402	0.00316741943359375	1.041259765625
428	1.044921875	16.8417739574786	0.00321563720703125	1.043701171875
429	1.04736328125	16.866173957417	0.00326416015625	1.04644775390625
430	1.0498046875	16.8905739573554	0.00331451416015625	1.0491943359375
431	1.05224609375	16.9149739572938	0.0033648681640625	1.05194091796875
432	1.0546875	16.9393739572322	0.00341522216796875	1.05377197265625
433	1.05712890625	16.9637739571706	0.00346527099609375	1.05621337890625
434	1.0595703125	16.988173957109	0.00351654052734375	1.058349609375
435	1.06201171875	17.0125739570474	0.00356781005859375	1.06109619140625
436	1.064453125	17.0369739569858	0.00361846923828125	1.063232421875
437	1.06689453125	17.0613739569242	0.00366912841796875	1.065673828125
438	1.0693359375	17.0857739568626	0.003720703125	1.06842041015625
439	1.07177734375	17.110173956801	0.00377166748046875	1.070556640625
440	1.07421875	17.1345739567394	0.00382171630859375	1.07330322265625
441	1.07666015625	17.1589739566778	0.0038720703125	1.07635498046875
442	1.0791015625	17.1833739566162	0.00392120361328125	1.07818603515625
443	1.08154296875	17.2077739565545	0.0039703369140625	1.0809326171875
444	1.083984375	17.2321739564929	0.0040191650390625	1.0833740234375
445	1.08642578125	17.2565739564313	0.00406646728515625	1.08551025390625
446	1.0888671875	17.2809739563697	0.004112548828125	1.08795166015625
447	1.09130859375	17.3053739563081	0.00415802001953125	1.090087890625
448	1.09375	17.3297739562465	0.00420257568359375	1.092529296875
449	1.09619140625	17.3541739561849	0.00424560546875	1.09527587890625
450	1.0986328125	17.3785739561233	0.00428802490234375	1.097412109375
451	1.10107421875	17.4029739560617	0.00432861328125	1.10015869140625
452	1.103515625	17.4273739560001	0.00436859130859375	1.102294921875
453	1.10595703125	17.4517739559385	0.00440765380859375	1.104736328125
454	1.1083984375	17.4761739558769	0.004444580078125	1.107177734375
455	1.11083984375	17.5005739558153	0.00447998046875	1.1090087890625
456	1.11328125	17.5249739557537	0.00451416015625	1.11236572265625
457	1.11572265625	17.5493739556921	0.00454803466796875	1.114501953125
458	1.1181640625	17.5737739556305	0.0045806884765625	1.116943359375
459	1.12060546875	17.5981739555689	0.0046124267578125	1.11968994140625
460	1.123046875	17.6225739555073	0.00464202880859375	1.121826171875
461	1.12548828125	17.6469739554457	0.0046722412109375	1.12457275390625
462	1.1279296875	17.6713739553841	0.004700927734375	1.126708984375
463	1.13037109375	17.6957739553225	0.00472869873046875	1.12945556640625
464	1.1328125	17.7201739552609	0.00475555419921875	1.13128662109375
465	1.13525390625	17.7445739551993	0.004781494140625	1.134033203125
466	1.1376953125	17.7689739551377	0.00480743408203125	1.136474609375
467	1.14013671875	17.793373955076	0.0048321533203125	1.138916015625
468	1.142578125	17.8177739550144	0.00485595703125	1.141357421875
469	1.14501953125	17.8421739549528	0.004879150390625	1.14410400390625
470	1.1474609375	17.8665739548912	0.00490203857421875	1.146240234375
471	1.14990234375	17.8909739548296	0.00492431640625	1.14898681640625
472	1.15234375	17.915373954768	0.00494598388671875	1.15142822265625
473	1.15478515625	17.9397739547064	0.004967041015625	1.153564453125
474	1.1572265625	17.9641739546448	0.00498779296875	1.15631103515625
475	1.15966796875	17.9885739545832	0.0050079345703125	1.15875244140625
476	1.162109375	18.0129739545216	0.0050274658203125	1.16058349609375
477	1.16455078125	18.03737395446	0.0050469970703125	1.16363525390625
478	1.1669921875	18.0617739543984	0.00506561279296875	1.16607666015625
479	1.16943359375	18.0861739543368	0.005084228515625	1.168212890625
480	1.171875	18.1105739542752	0.0051025390625	1.17095947265625
481	1.17431640625	18.1349739542136	0.00512054443359375	1.173095703125
482	1.1767578125	18.159373954152	0.005137939453125	1.17523193359375
483	1.17919921875	18.1837739540904	0.00515472412109375	1.177978515625
484	1.181640625	18.2081739540288	0.0051715087890625	1.180419921875
485	1.18408203125	18.2325739539672	0.00518798828125	1.18316650390625
486	1.1865234375	18.2569739539056	0.00520416259765625	1.185302734375
487	1.18896484375	18.281373953844	0.00522003173828125	1.18743896484375
488	1.19140625	18.3057739537824	0.005235595703125	1.18988037109375
489	1.19384765625	18.3301739537208	0.00525115966796875	1.19293212890625
490	1.1962890625	18.3545739536592	0.00526641845703125	1.195068359375
491	1.19873046875	18.3789739535976	0.0052813720703125	1.197509765625
492	1.201171875	18.4033739535359	0.00529571533203125	1.20025634765625
493	1.19873046875	18.4277739534743	0.00527679443359375	1.197509765625
494	1.1962890625	18.4521739534127	0.005257568359375	1.19537353515625
495	1.19384765625	18.4765739533511	0.00523773193359375	1.19293212890625
496	1.19140625	18.5009739532895	0.00521728515625	1.190185546875
497	1.18896484375	18.5253739532279	0.00519683837890625	1.18804931640625
498	1.1865234375	18.5497739531663	0.00517608642578125	1.185302734375
499	1.18408203125	18.5741739531047	0.00515472412109375	1.182861328125
500	1.181640625	18.5985739530431	0.00513275146484375	1.18072509765625
501	1.17919921875	18.6229739529815	0.00511016845703125	1.17828369140625
502	1.1767578125	18.6473739529199	0.00508697509765625	1.175537109375
503	1.17431640625	18.6717739528583	0.0050634765625	1.17340087890625
504	1.171875	18.6961739527967	0.00503936767578125	1.17034912109375
505	1.16943359375	18.7205739527351	0.0050140380859375	1.1688232421875
506	1.1669921875	18.7449739526735	0.00498870849609375	1.165771484375
507	1.16455078125	18.7693739526119	0.00496246337890625	1.163330078125
508	1.162109375	18.7937739525503	0.004935302734375	1.160888671875
509	1.15966796875	18.8181739524887	0.0049072265625	1.158447265625
510	1.1572265625	18.8425739524271	0.00487823486328125	1.15570068359375
511	1.15478515625	18.8669739523655	0.0048480224609375	1.15325927734375
512	1.15234375	18.8913739523039	0.0048175048828125	1.151123046875
513	1.14990234375	18.9157739522423	0.00478546142578125	1.14837646484375
514	1.1474609375	18.9401739521807	0.004752197265625	1.146240234375
515	1.14501953125	18.9645739521191	0.00471771240234375	1.143798828125
516	1.142578125	18.9889739520574	0.0046820068359375	1.141357421875
517	1.14013671875	19.0133739519958	0.004644775390625	1.13861083984375
518	1.1376953125	19.0377739519342	0.00460662841796875	1.1370849609375
519	1.13525390625	19.0621739518726	0.0045660400390625	1.134033203125
520	1.1328125	19.086573951811	0.00452423095703125	1.131591796875
521	1.13037109375	19.1109739517494	0.0044805908203125	1.129150390625
522	1.1279296875	19.1353739516878	0.004434814453125	1.126708984375
523	1.12548828125	19.1597739516262	0.00438751220703125	1.12518310546875
524	1.123046875	19.1841739515646	0.0043377685546875	1.12213134765625
525	1.12060546875	19.208573951503	0.004287109375	1.11907958984375
526	1.1181640625	19.2329739514414	0.00423370361328125	1.11724853515625
527	1.11572265625	19.2573739513798	0.004178466796875	1.11480712890625
528	1.11328125	19.2817739513182	0.00412078857421875	1.112060546875
529	1.11083984375	19.3061739512566	0.0040618896484375	1.109619140625
530	1.1083984375	19.330573951195	0.0040020751953125	1.107177734375
531	1.10595703125	19.3549739511334	0.0039410400390625	1.1053466796875
532	1.103515625	19.3793739510718	0.00387939453125	1.10260009765625
533	1.10107421875	19.4037739510102	0.00381561279296875	1.09954833984375
534	1.0986328125	19.4281739509486	0.00375274658203125	1.09771728515625
535	1.09619140625	19.452573950887	0.00368896484375	1.09527587890625
536	1.09375	19.4769739508254	0.0036248779296875	1.09283447265625
537	1.09130859375	19.5013739507638	0.0035614013671875	1.09039306640625
538	1.0888671875	19.5257739507022	0.00349822998046875	1.087646484375
539	1.08642578125	19.5501739506406	0.00343536376953125	1.08551025390625
540	1.083984375	19.574573950579	0.00337310791015625	1.0833740234375
541	1.08154296875	19.5989739505173	0.00331085205078125	1.08062744140625
542	1.0791015625	19.6233739504557	0.00324951171875	1.077880859375
543	1.07666015625	19.6477739503941	0.0031878662109375	1.07574462890625
544	1.07421875	19.6721739503325	0.00312835693359375	1.07330322265625
545	1.07177734375	19.6965739502709	0.0030682373046875	1.07086181640625
546	1.0693359375	19.7209739502093	0.00300994873046875	1.068115234375
547	1.06689453125	19.7453739501477	0.0029510498046875	1.06597900390625
548	1.064453125	19.7697739500861	0.00289459228515625	1.06353759765625
549	1.06201171875	19.7941739500245	0.00283782958984375	1.060791015625
550	1.0595703125	19.8185739499629	0.002781982421875	1.0589599609375
551	1.05712890625	19.8429739499013	0.00272705078125	1.055908203125
552	1.0546875	19.8673739498397	0.00267242431640625	1.0540771484375
553	1.05224609375	19.8917739497781	0.00261962890625	1.051025390625
554	1.0498046875	19.9161739497165	0.0025665283203125	1.04888916015625
555	1.04736328125	19.9405739496549	0.0025140380859375	1.0467529296875
556	1.044921875	19.9649739495933	0.00246368408203125	1.04400634765625
557	1.04248046875	19.9893739495317	0.00241455078125	1.0418701171875
558	1.0400390625	20.0137739494701	0.00236663818359375	1.03912353515625
559	1.03759765625	20.0381739494085	0.002318115234375	1.03668212890625
560	1.03515625	20.0625739493469	0.00227081298828125	1.03424072265625
561	1.03271484375	20.0869739492853	0.00222564697265625	1.0321044921875
562	1.0302734375	20.1113739492237	0.00218109130859375	1.02935791015625
563	1.02783203125	20.1357739491621	0.0021368408203125	1.026611328125
564	1.025390625	20.1601739491005	0.00209228515625	1.02447509765625
565	1.02294921875	20.1845739490388	0.00204986572265625	1.021728515625
566	1.0205078125	20.2089739489772	0.0020074462890625	1.01959228515625
567	1.01806640625	20.2333739489156	0.0019671630859375	1.016845703125
568	1.015625	20.257773948854	0.00192657470703125	1.014404296875
569	1.01318359375	20.2821739487924	0.00188720703125	1.01226806640625
570	1.0107421875	20.3065739487308	0.00184814453125	1.009521484375
571	1.00830078125	20.3309739486692	0.00180908203125	1.00799560546875
572	1.005859375	20.3553739486076	0.00177215576171875	1.00494384765625
573	1.00341796875	20.379773948546	0.001734619140625	1.00250244140625
574	1.0009765625	20.4041739484844	0.00170013427734375	1.00006103515625
575	0.99853515625	20.4285739484228	0.0016656494140625	0.9979248046875
576	0.99609375	20.4529739483612	0.00163177490234375	0.99517822265625
577	0.99365234375	20.4773739482996	0.00159759521484375	0.9930419921875
578	0.9912109375	20.501773948238	0.00156524658203125	0.9906005859375
579	0.98876953125	20.5261739481764	0.001533203125	0.98785400390625
580	0.986328125	20.5505739481148	0.00150238037109375	0.98541259765625
581	0.98388671875	20.5749739480532	0.00147125244140625	0.982666015625
582	0.9814453125	20.5993739479916	0.001441650390625	0.98052978515625
583	0.97900390625	20.62377394793	0.00141265869140625	0.9783935546875
584	0.9765625	20.6481739478684	0.00138397216796875	0.97625732421875
585	0.97412109375	20.6725739478068	0.001357421875	0.97381591796875
586	0.9716796875	20.6969739477452	0.00133056640625	0.97076416015625
587	0.96923828125	20.7213739476836	0.00130340576171875	0.96832275390625
588	0.966796875	20.745773947622	0.00127716064453125	0.965576171875
589	0.96435546875	20.7701739475604	0.0012518310546875	0.96343994140625
590	0.9619140625	20.7945739474987	0.00122894287109375	0.96099853515625
591	0.95947265625	20.8189739474371	0.00120330810546875	0.95855712890625
592	0.95703125	20.8433739473755	0.0011798095703125	0.95611572265625
593	0.95458984375	20.8677739473139	0.00115631103515625	0.95367431640625
594	0.9521484375	20.8921739472523	0.001134033203125	0.9515380859375
595	0.94970703125	20.9165739471907	0.00111236572265625	0.94879150390625
596	0.947265625	20.9409739471291	0.00109039306640625	0.94635009765625
597	0.94482421875	20.9653739470675	0.0010699462890625	0.94390869140625
598	0.9423828125	20.9897739470059	0.00104888916015625	0.9417724609375
599	0.93994140625	21.0141739469443	0.00102874755859375	0.9393310546875
600	0.9375	21.0385739468827	0.00100860595703125	0.93658447265625
601	0.93505859375	21.0629739468211	0.0009906005859375	0.93414306640625
602	0.9326171875	21.0873739467595	0.00097137451171875	0.93170166015625
603	0.93017578125	21.1117739466979	0.0009521484375	0.9295654296875
604	0.927734375	21.1361739466363	0.00093475341796875	0.926513671875
605	0.92529296875	21.1605739465747	0.00091827392578125	0.9246826171875
606	0.9228515625	21.1849739465131	0.00090057373046875	0.9222412109375
607	0.92041015625	21.2093739464515	0.0008831787109375	0.92010498046875
608	0.91796875	21.2337739463899	0.00086669921875	0.9173583984375
609	0.91552734375	21.2581739463283	0.00085113525390625	0.914306640625
610	0.9130859375	21.2825739462667	0.00083526611328125	0.911865234375
611	0.91064453125	21.3069739462051	0.00082061767578125	0.909423828125
612	0.908203125	21.3313739461435	0.0008050537109375	0.906982421875
613	0.90576171875	21.3557739460819	0.00079132080078125	0.9051513671875
614	0.9033203125	21.3801739460202	0.0007763671875	0.902099609375
615	0.90087890625	21.4045739459586	0.00076263427734375	0.89935302734375
616	0.8984375	21.428973945897	0.00074920654296875	0.89752197265625
617	0.89599609375	21.4533739458354	0.00073577880859375	0.89447021484375
618	0.8935546875	21.4777739457738	0.00072265625	0.8929443359375
619	0.89111328125	21.5021739457122	0.000709228515625	0.89019775390625
620	0.888671875	21.5265739456506	0.00069793701171875	0.887451171875
621	0.88623046875	21.550973945589	0.00068572998046875	0.8856201171875
622	0.8837890625	21.5753739455274	0.00067291259765625	0.882568359375
623	0.88134765625	21.5997739454658	0.00066009521484375	0.88043212890625
624	0.87890625	21.6241739454042	0.00064971923828125	0.8782958984375
625	0.87646484375	21.6485739453426	0.0006378173828125	0.875244140625
626	0.8740234375	21.672973945281	0.0006268310546875	0.87371826171875
627	0.87158203125	21.6973739452194	0.00061492919921875	0.8709716796875
628	0.869140625	21.7217739451578	0.00060577392578125	0.867919921875
629	0.86669921875	21.7461739450962	0.0005950927734375	0.86639404296875
630	0.8642578125	21.7705739450346	0.0005841064453125	0.86334228515625
631	0.86181640625	21.794973944973	0.0005743408203125	0.860595703125
632	0.859375	21.8193739449114	0.00056488037109375	0.85845947265625
633	0.85693359375	21.8437739448498	0.0005548095703125	0.85601806640625
634	0.8544921875	21.8681739447882	0.00054534912109375	0.8538818359375
635	0.85205078125	21.8925739447266	0.00053497314453125	0.85113525390625
636	0.849609375	21.916973944665	0.00052703857421875	0.8489990234375
637	0.84716796875	21.9413739446034	0.000516357421875	0.845947265625
638	0.8447265625	21.9657739445418	0.00050872802734375	0.84442138671875
639	0.84228515625	21.9901739444801	0.00049957275390625	0.84136962890625
640	0.83984375	22.0145739444185	0.000490264892578125	0.838623046875
641	0.83740234375	22.0389739443569	0.00048187255859375	0.8367919921875
642	0.8349609375	22.0633739442953	0.00047418212890625	0.83404541015625
643	0.83251953125	22.0877739442337	0.00046588134765625	0.8319091796875
644	0.830078125	22.1121739441721	0.0004571533203125	0.828857421875
645	0.82763671875	22.1365739441105	0.000449737548828125	0.826416015625
646	0.8251953125	22.1609739440489	0.000440673828125	0.82427978515625
647	0.82275390625	22.1853739439873	0.000433868408203125	0.8221435546875
648	0.8203125	22.2097739439257	0.00042535400390625	0.8197021484375
649	0.81787109375	22.2341739438641	0.00041912841796875	0.8172607421875
650	0.8154296875	22.2585739438025	0.000412384033203125	0.81451416015625
651	0.81298828125	22.2829739437409	0.00040447998046875	0.8123779296875
652	0.810546875	22.3073739436793	0.00039801025390625	0.80963134765625
653	0.80810546875	22.3317739436177	0.000390899658203125	0.8074951171875
654	0.8056640625	22.3561739435561	0.000385955810546875	0.8050537109375
655	0.80322265625	22.3805739434945	0.00037884521484375	0.80230712890625
656	0.80078125	22.4049739434329	0.0003724365234375	0.799560546875
657	0.79833984375	22.4293739433713	0.0003646240234375	0.7977294921875
658	0.7958984375	22.4537739433097	0.00035809326171875	0.79498291015625
659	0.79345703125	22.4781739432481	0.000352020263671875	0.7928466796875
660	0.791015625	22.5025739431865	0.0003455810546875	0.7904052734375
661	0.78857421875	22.5269739431249	0.000339996337890625	0.787353515625
662	0.7861328125	22.5513739430633	0.000333221435546875	0.784912109375
663	0.78369140625	22.5757739430016	0.0003280029296875	0.78277587890625
664	0.78125	22.60017394294	0.00032086181640625	0.7806396484375
665	0.77880859375	22.6245739428784	0.00031640625	0.77789306640625
666	0.7763671875	22.6489739428168	0.00030999755859375	0.77545166015625
667	0.77392578125	22.6733739427552	0.000305084228515625	0.7733154296875
668	0.771484375	22.6977739426936	0.00029937744140625	0.77117919921875
669	0.76904296875	22.722173942632	0.000293426513671875	0.7684326171875
670	0.7666015625	22.7465739425704	0.0002889404296875	0.76568603515625
671	0.76416015625	22.7709739425088	0.000282806396484375	0.76324462890625
672	0.76171875	22.7953739424472	0.000278839111328125	0.76080322265625
673	0.75927734375	22.8197739423856	0.000272857666015625	0.75836181640625
674	0.7568359375	22.844173942324	0.00026849365234375	0.75592041015625
675	0.75439453125	22.8685739422624	0.000263031005859375	0.75347900390625
676	0.751953125	22.8929739422008	0.000258087158203125	0.750732421875
677	0.74951171875	22.9173739421392	0.000253509521484375	0.749237060546875
678	0.7470703125	22.9417739420776	0.00024908447265625	0.746856689453125
679	0.74462890625	22.966173942016	0.00024517822265625	0.74444580078125
680	0.7421875	22.9905739419544	0.0002396240234375	0.741943359375
681	0.73974609375	23.0149739418928	0.000235260009765625	0.739501953125
682	0.7373046875	23.0393739418312	0.00022967529296875	0.737030029296875
683	0.73486328125	23.0637739417696	0.000225616455078125	0.734649658203125
684	0.732421875	23.088173941708	0.000222137451171875	0.732177734375
685	0.72998046875	23.1125739416464	0.000217193603515625	0.7298583984375
686	0.7275390625	23.1369739415848	0.000214508056640625	0.727386474609375
687	0.72509765625	23.1613739415232	0.00020880126953125	0.724853515625
688	0.72265625	23.1857739414615	0.00020648193359375	0.722503662109375
689	0.72021484375	23.2101739413999	0.000202117919921875	0.720062255859375
690	0.7177734375	23.2345739413383	0.000197509765625	0.717529296875
691	0.71533203125	23.2589739412767	0.000193939208984375	0.7152099609375
692	0.712890625	23.2833739412151	0.000189483642578125	0.71270751953125
693	0.71044921875	23.3077739411535	0.000186065673828125	0.710235595703125
694	0.7080078125	23.3321739410919	0.000182647705078125	0.707794189453125
695	0.70556640625	23.3565739410303	0.00018072509765625	0.705413818359375
696	0.703125	23.3809739409687	0.00017578125	0.702911376953125
697	0.70068359375	23.4053739409071	0.000172607421875	0.700531005859375
698	0.6982421875	23.4297739408455	0.0001688232421875	0.69805908203125
699	0.69580078125	23.4541739407839	0.00016558837890625	0.695587158203125
700	0.693359375	23.4785739407223	0.000161712646484375	0.693206787109375
701	0.69091796875	23.5029739406607	0.000158538818359375	0.690765380859375
702	0.6884765625	23.5273739405991	0.00015576171875	0.68829345703125
703	0.68603515625	23.5517739405375	0.000152557373046875	0.68585205078125
704	0.68359375	23.5761739404759	0.00015057373046875	0.6834716796875
705	0.68115234375	23.6005739404143	0.000146453857421875	0.6810302734375
706	0.6787109375	23.6249739403527	0.000143707275390625	0.678558349609375
707	0.67626953125	23.6493739402911	0.000139801025390625	0.676116943359375
708	0.673828125	23.6737739402295	0.000136077880859375	0.67376708984375
709	0.67138671875	23.6981739401679	0.000133941650390625	0.6712646484375
710	0.6689453125	23.7225739401063	0.00013189697265625	0.6688232421875
711	0.66650390625	23.7469739400447	0.00012890625	0.66632080078125
712	0.6640625	23.7713739399831	0.00012506103515625	0.6639404296875
713	0.66162109375	23.7957739399214	0.000123382568359375	0.6614990234375
714	0.6591796875	23.8201739398598	0.0001192626953125	0.659088134765625
715	0.65673828125	23.8445739397982	0.0001180419921875	0.6566162109375
716	0.654296875	23.8689739397366	0.00011529541015625	0.65411376953125
717	0.65185546875	23.893373939675	0.000112060546875	0.651763916015625
718	0.6494140625	23.9177739396134	0.000109832763671875	0.649261474609375
719	0.64697265625	23.9421739395518	0.0001068115234375	0.6468505859375
720	0.64453125	23.9665739394902	0.000105560302734375	0.6444091796875
721	0.64208984375	23.9909739394286	0.00010302734375	0.64202880859375
722	0.6396484375	24.015373939367	0.000101318359375	0.6395263671875
723	0.63720703125	24.0397739393054	9.9273681640625E-05	0.637115478515625
724	0.634765625	24.0641739392438	9.6649169921875E-05	0.6346435546875
725	0.63232421875	24.0885739391822	9.5306396484375E-05	0.632171630859375
726	0.6298828125	24.1129739391206	9.2254638671875E-05	0.6297607421875
727	0.62744140625	24.137373939059	9.173583984375E-05	0.6273193359375
728	0.625	24.1617739389974	8.8531494140625E-05	0.62469482421875
729	0.62255859375	24.1861739389358	8.75244140625E-05	0.622344970703125
730	0.6201171875	24.2105739388742	8.477783203125E-05	0.619873046875
731	0.61767578125	24.2349739388126	8.3892822265625E-05	0.61749267578125
732	0.615234375	24.259373938751	8.203125E-05	0.615020751953125
733	0.61279296875	24.2837739386894	7.9925537109375E-05	0.612579345703125
734	0.6103515625	24.3081739386278	7.928466796875E-05	0.61016845703125
735	0.60791015625	24.3325739385662	7.6416015625E-05	0.60772705078125
736	0.60546875	24.3569739385046	7.4951171875E-05	0.60528564453125
737	0.60302734375	24.3813739384429	7.2967529296875E-05	0.60284423828125
738	0.6005859375	24.4057739383813	7.1014404296875E-05	0.600433349609375
739	0.59814453125	24.4301739383197	6.8023681640625E-05	0.597991943359375
740	0.595703125	24.4545739382581	6.768798828125E-05	0.5955810546875
741	0.59326171875	24.4789739381965	6.597900390625E-05	0.59307861328125
742	0.5908203125	24.5033739381349	6.3934326171875E-05	0.590606689453125
743	0.58837890625	24.5277739380733	6.4208984375E-05	0.588165283203125
744	0.5859375	24.5521739380117	6.1431884765625E-05	0.585723876953125
745	0.58349609375	24.5765739379501	6.0760498046875E-05	0.58331298828125
746	0.5810546875	24.6009739378885	5.94482421875E-05	0.580902099609375
747	0.57861328125	24.6253739378269	5.79833984375E-05	0.57843017578125
748	0.576171875	24.6497739377653	5.645751953125E-05	0.575958251953125
749	0.57373046875	24.6741739377037	5.548095703125E-05	0.573577880859375
750	0.5712890625	24.6985739376421	5.474853515625E-05	0.57110595703125
751	0.56884765625	24.7229739375805	5.2337646484375E-05	0.5687255859375
752	0.56640625	24.7473739375189	5.230712890625E-05	0.56622314453125
753	0.56396484375	24.7717739374573	4.9713134765625E-05	0.56378173828125
754	0.5615234375	24.7961739373957	4.85809326171875E-05	0.561370849609375
755	0.55908203125	24.8205739373341	4.7686767578125E-05	0.5589599609375
756	0.556640625	24.8449739372725	4.6905517578125E-05	0.556488037109375
757	0.55419921875	24.8693739372109	4.47174072265625E-05	0.5540771484375
758	0.5517578125	24.8937739371493	4.2608642578125E-05	0.551666259765625
759	0.54931640625	24.9181739370877	4.3206787109375E-05	0.5491943359375
760	0.546875	24.9425739370261	4.0521240234375E-05	0.5467529296875
761	0.54443359375	24.9669739369645	4.1656494140625E-05	0.54437255859375
762	0.5419921875	24.9913739369028	3.939208984375E-05	0.541839599609375
763	0.53955078125	25.0157739368412	3.86016845703125E-05	0.5394287109375
764	0.537109375	25.0401739367796	3.8031005859375E-05	0.53704833984375
765	0.53466796875	25.064573936718	3.71551513671875E-05	0.534576416015625
766	0.5322265625	25.0889739366564	3.67156982421875E-05	0.53204345703125
767	0.52978515625	25.1133739365948	3.40545654296875E-05	0.529693603515625
768	0.52734375	25.1377739365332	3.504638671875E-05	0.5272216796875
769	0.52490234375	25.1621739364716	3.29925537109375E-05	0.52471923828125
770	0.5224609375	25.18657393641	3.2568359375E-05	0.52227783203125
771	0.52001953125	25.2109739363484	3.1121826171875E-05	0.5198974609375
772	0.517578125	25.2353739362868	2.97607421875E-05	0.517425537109375
773	0.51513671875	25.2597739362252	2.96783447265625E-05	0.51507568359375
774	0.5126953125	25.2841739361636	2.816162109375E-05	0.512542724609375
775	0.51025390625	25.308573936102	2.869873046875E-05	0.51019287109375
776	0.5078125	25.3329739360404	2.6287841796875E-05	0.5076904296875
777	0.50537109375	25.3573739359788	2.71881103515625E-05	0.505279541015625
778	0.5029296875	25.3817739359172	2.49664306640625E-05	0.5028076171875
779	0.50048828125	25.4061739358556	2.47589111328125E-05	0.50042724609375
780	0.498046875	25.430573935794	2.40814208984375E-05	0.4979248046875
781	0.49560546875	25.4549739357324	2.347412109375E-05	0.4954833984375
782	0.4931640625	25.4793739356708	2.30377197265625E-05	0.493072509765625
783	0.49072265625	25.5037739356092	2.13470458984375E-05	0.490631103515625
784	0.48828125	25.5281739355476	2.19329833984375E-05	0.4881591796875
785	0.48583984375	25.552573935486	1.97052001953125E-05	0.485748291015625
786	0.4833984375	25.5769739354243	1.9781494140625E-05	0.483367919921875
787	0.48095703125	25.6013739353627	1.9140625E-05	0.48089599609375
788	0.478515625	25.6257739353011	1.91558837890625E-05	0.47845458984375
789	0.47607421875	25.6501739352395	1.87347412109375E-05	0.475982666015625
790	0.4736328125	25.6745739351779	1.73675537109375E-05	0.473602294921875
791	0.47119140625	25.6989739351163	1.81671142578125E-05	0.471221923828125
792	0.46875	25.7233739350547	1.58599853515625E-05	0.468719482421875
793	0.46630859375	25.7477739349931	1.64276123046875E-05	0.466217041015625
794	0.4638671875	25.7721739349315	1.5716552734375E-05	0.463836669921875
795	0.46142578125	25.7965739348699	1.58355712890625E-05	0.46136474609375
796	0.458984375	25.8209739348083	1.52496337890625E-05	0.458984375
797	0.45654296875	25.8453739347467	1.35040283203125E-05	0.456512451171875
798	0.4541015625	25.8697739346851	1.356201171875E-05	0.454010009765625
799	0.45166015625	25.8941739346235	1.25518798828125E-05	0.451629638671875
800	0.44921875	25.9185739345619	1.25244140625E-05	0.44915771484375
801	0.44677734375	25.9429739345003	1.07757568359375E-05	0.446746826171875
802	0.4443359375	25.9673739344387	1.16546630859375E-05	0.44439697265625
803	0.44189453125	25.9917739343771	9.7198486328125E-06	0.441802978515625
804	0.439453125	26.0161739343155	1.00189208984375E-05	0.43939208984375
805	0.43701171875	26.0405739342539	9.1766357421875E-06	0.436981201171875
806	0.4345703125	26.0649739341923	8.48388671875E-06	0.434539794921875
807	0.43212890625	26.0893739341307	9.3902587890625E-06	0.43206787109375
808	0.4296875	26.1137739340691	8.148193359375E-06	0.4296875
809	0.42724609375	26.1381739340075	8.4320068359375E-06	0.427276611328125
810	0.4248046875	26.1625739339459	6.7718505859375E-06	0.424652099609375
811	0.42236328125	26.1869739338842	6.4300537109375E-06	0.422210693359375
812	0.419921875	26.2113739338226	6.4056396484375E-06	0.41973876953125
813	0.41748046875	26.235773933761	6.182861328125E-06	0.4173583984375
814	0.4150390625	26.2601739336994	5.767822265625E-06	0.4149169921875
815	0.41259765625	26.2845739336378	5.0811767578125E-06	0.412506103515625
816	0.41015625	26.3089739335762	5.1483154296875E-06	0.410064697265625
817	0.40771484375	26.3333739335146	3.509521484375E-06	0.407623291015625
818	0.4052734375	26.357773933453	4.022216796875E-06	0.405242919921875
819	0.40283203125	26.3821739333914	2.880859375E-06	0.402801513671875
820	0.400390625	26.4065739333298	2.65777587890625E-06	0.40032958984375
821	0.39794921875	26.4309739332682	2.23358154296875E-06	0.397857666015625
822	0.3955078125	26.4553739332066	2.36175537109375E-06	0.395477294921875
823	0.39306640625	26.479773933145	2.58758544921875E-06	0.393035888671875
824	0.390625	26.5041739330834	7.9803466796875E-07	0.390594482421875
825	0.38818359375	26.5285739330218	1.7376708984375E-06	0.388214111328125
826	0.3857421875	26.5529739329602	7.208251953125E-07	0.385711669921875
827	0.38330078125	26.5773739328986	5.5267333984375E-07	0.38330078125
828	0.380859375	26.601773932837	-1.800537109375E-07	0.38092041015625
829	0.37841796875	26.6261739327754	-5.8746337890625E-07	0.37847900390625
830	0.3759765625	26.6505739327138	-2.337646484375E-07	0.376007080078125
831	0.37353515625	26.6749739326522	-8.4259033203125E-07	0.373687744140625
832	0.37109375	26.6993739325906	-5.01708984375E-07	0.3712158203125
833	0.36865234375	26.723773932529	-1.8841552734375E-06	0.36859130859375
834	0.3662109375	26.7481739324674	-1.20025634765625E-06	0.366546630859375
835	0.36376953125	26.7725739324057	-1.87774658203125E-06	0.363922119140625
836	0.361328125	26.7969739323441	-2.46856689453125E-06	0.361907958984375
837	0.35888671875	26.8213739322825	-3.24432373046875E-06	0.3592529296875
838	0.3564453125	26.8457739322209	-4.47998046875E-06	0.3564453125
839	0.35400390625	26.8701739321593	-4.0557861328125E-06	0.35406494140625
840	0.3515625	26.8945739320977	-4.9713134765625E-06	0.351593017578125
841	0.34912109375	26.9189739320361	-4.5440673828125E-06	0.3492431640625
842	0.3466796875	26.9433739319745	-6.1248779296875E-06	0.346710205078125
843	0.34423828125	26.9677739319129	-5.804443359375E-06	0.34429931640625
844	0.341796875	26.9921739318513	-6.60400390625E-06	0.34185791015625
845	0.33935546875	27.0165739317897	-7.135009765625E-06	0.339385986328125
846	0.3369140625	27.0409739317281	-6.9671630859375E-06	0.337005615234375
847	0.33447265625	27.0653739316665	-8.4197998046875E-06	0.334503173828125
848	0.33203125	27.0897739316049	-7.574462890625E-06	0.332122802734375
849	0.32958984375	27.1141739315433	-8.4930419921875E-06	0.329681396484375
850	0.3271484375	27.1385739314817	-8.0108642578125E-06	0.3272705078125
851	0.32470703125	27.1629739314201	-9.600830078125E-06	0.324798583984375
852	0.322265625	27.1873739313585	-9.832763671875E-06	0.3223876953125
853	0.31982421875	27.2117739312969	-1.01837158203125E-05	0.3199462890625
854	0.3173828125	27.2361739312353	-1.06475830078125E-05	0.31756591796875
855	0.31494140625	27.2605739311737	-9.9212646484375E-06	0.3150634765625
856	0.3125	27.2849739311121	-1.14013671875E-05	0.312591552734375
857	0.31005859375	27.3093739310505	-1.0552978515625E-05	0.310211181640625
858	0.3076171875	27.3337739309889	-1.1834716796875E-05	0.3077392578125
859	0.30517578125	27.3581739309273	-1.13494873046875E-05	0.3052978515625
860	0.302734375	27.3825739308656	-1.265869140625E-05	0.30291748046875
861	0.30029296875	27.406973930804	-1.2945556640625E-05	0.30047607421875
862	0.2978515625	27.4313739307424	-1.2646484375E-05	0.2979736328125
863	0.29541015625	27.4557739306808	-1.3641357421875E-05	0.29559326171875
864	0.29296875	27.4801739306192	-1.265869140625E-05	0.293121337890625
865	0.29052734375	27.5045739305576	-1.43798828125E-05	0.2906494140625
866	0.2880859375	27.528973930496	-1.36016845703125E-05	0.2882080078125
867	0.28564453125	27.5533739304344	-1.43157958984375E-05	0.285858154296875
868	0.283203125	27.5777739303728	-1.41754150390625E-05	0.283416748046875
869	0.28076171875	27.6021739303112	-1.4788818359375E-05	0.28094482421875
870	0.2783203125	27.6265739302496	-1.54876708984375E-05	0.278564453125
871	0.27587890625	27.650973930188	-1.478271484375E-05	0.27606201171875
872	0.2734375	27.6753739301264	-1.61407470703125E-05	0.273681640625
873	0.27099609375	27.6997739300648	-1.55120849609375E-05	0.271209716796875
874	0.2685546875	27.7241739300032	-1.689453125E-05	0.26873779296875
875	0.26611328125	27.7485739299416	-1.62353515625E-05	0.266326904296875
876	0.263671875	27.77297392988	-1.69952392578125E-05	0.26385498046875
877	0.26123046875	27.7973739298184	-1.74957275390625E-05	0.261474609375
878	0.2587890625	27.8217739297568	-1.72454833984375E-05	0.259002685546875
879	0.25634765625	27.8461739296952	-1.854248046875E-05	0.256591796875
880	0.25390625	27.8705739296336	-1.7742919921875E-05	0.254180908203125
881	0.25146484375	27.894973929572	-1.907958984375E-05	0.251708984375
882	0.2490234375	27.9193739295104	-1.83197021484375E-05	0.24932861328125
883	0.24658203125	27.9437739294488	-1.9921875E-05	0.246826171875
884	0.244140625	27.9681739293871	-2.00408935546875E-05	0.244415283203125
885	0.24169921875	27.9925739293255	-2.030029296875E-05	0.241973876953125
886	0.2392578125	28.0169739292639	-2.10479736328125E-05	0.239532470703125
887	0.23681640625	28.0413739292023	-2.03582763671875E-05	0.23712158203125
888	0.234375	28.0657739291407	-2.18536376953125E-05	0.23468017578125
889	0.23193359375	28.0901739290791	-2.12615966796875E-05	0.232269287109375
890	0.2294921875	28.1145739290175	-2.22900390625E-05	0.229827880859375
891	0.22705078125	28.1389739289559	-2.1710205078125E-05	0.227325439453125
892	0.224609375	28.1633739288943	-2.25372314453125E-05	0.22491455078125
893	0.22216796875	28.1877739288327	-2.28973388671875E-05	0.222503662109375
894	0.2197265625	28.2121739287711	-2.2540283203125E-05	0.220001220703125
895	0.21728515625	28.2365739287095	-2.37060546875E-05	0.2176513671875
896	0.21484375	28.2609739286479	-2.28790283203125E-05	0.21514892578125
897	0.21240234375	28.2853739285863	-2.459716796875E-05	0.2127685546875
898	0.2099609375	28.3097739285247	-2.36083984375E-05	0.210296630859375
899	0.20751953125	28.3341739284631	-2.4786376953125E-05	0.20782470703125
900	0.205078125	28.3585739284015	-2.43682861328125E-05	0.2054443359375
901	0.20263671875	28.3829739283399	-2.5140380859375E-05	0.2030029296875
902	0.2001953125	28.4073739282783	-2.57843017578125E-05	0.2005615234375
903	0.19775390625	28.4317739282167	-2.53082275390625E-05	0.19818115234375
904	0.1953125	28.4561739281551	-2.65472412109375E-05	0.195709228515625
905	0.19287109375	28.4805739280935	-2.5665283203125E-05	0.193328857421875
906	0.1904296875	28.5049739280319	-2.71148681640625E-05	0.190765380859375
907	0.18798828125	28.5293739279703	-2.6715087890625E-05	0.188446044921875
908	0.185546875	28.5537739279087	-2.7288818359375E-05	0.185943603515625
909	0.18310546875	28.578173927847	-2.74444580078125E-05	0.183563232421875
910	0.1806640625	28.6025739277854	-2.7545166015625E-05	0.18109130859375
911	0.17822265625	28.6269739277238	-2.896728515625E-05	0.1787109375
912	0.17578125	28.6513739276622	-2.79815673828125E-05	0.176239013671875
913	0.17333984375	28.6757739276006	-2.93365478515625E-05	0.173797607421875
914	0.1708984375	28.700173927539	-2.8515625E-05	0.171417236328125
915	0.16845703125	28.7245739274774	-2.984619140625E-05	0.168914794921875
916	0.166015625	28.7489739274158	-2.97515869140625E-05	0.166534423828125
917	0.16357421875	28.7733739273542	-3.00933837890625E-05	0.1640625
918	0.1611328125	28.7977739272926	-3.07098388671875E-05	0.1611328125
919	0.15869140625	28.822173927231	-3.02703857421875E-05	0.158782958984375
920	0.15625	28.8465739271694	-3.18603515625E-05	0.1563720703125
921	0.15380859375	28.8709739271078	-3.0841064453125E-05	0.15386962890625
922	0.1513671875	28.8953739270462	-3.20648193359375E-05	0.151458740234375
923	0.14892578125	28.9197739269846	-3.1536865234375E-05	0.149017333984375
924	0.146484375	28.944173926923	-3.2550048828125E-05	0.146575927734375
925	0.14404296875	28.9685739268614	-3.28033447265625E-05	0.1441650390625
926	0.1416015625	28.9929739267998	-3.2781982421875E-05	0.14166259765625
927	0.13916015625	29.0173739267382	-3.35296630859375E-05	0.139251708984375
928	0.13671875	29.0417739266766	-3.2830810546875E-05	0.136810302734375
929	0.13427734375	29.066173926615	-3.44482421875E-05	0.134368896484375
930	0.1318359375	29.0905739265534	-3.36883544921875E-05	0.13189697265625
931	0.12939453125	29.1149739264918	-3.5052490234375E-05	0.129547119140625
932	0.126953125	29.1393739264302	-3.47076416015625E-05	0.12701416015625
933	0.12451171875	29.1637739263685	-3.50677490234375E-05	0.124603271484375
934	0.1220703125	29.1881739263069	-3.568115234375E-05	0.1221923828125
935	0.11962890625	29.2125739262453	-3.54522705078125E-05	0.119781494140625
936	0.1171875	29.2369739261837	-3.65478515625E-05	0.117279052734375
937	0.11474609375	29.2613739261221	-3.57147216796875E-05	0.114898681640625
938	0.1123046875	29.2857739260605	-3.73748779296875E-05	0.112396240234375
939	0.10986328125	29.3101739259989	-3.66851806640625E-05	0.109954833984375
940	0.107421875	29.3345739259373	-3.74725341796875E-05	0.107574462890625
941	0.10498046875	29.3589739258757	-3.7591552734375E-05	0.10504150390625
942	0.1025390625	29.3833739258141	-3.7823486328125E-05	0.102691650390625
943	0.10009765625	29.4077739257525	-3.88671875E-05	0.100189208984375
944	0.09765625	29.4321739256909	-3.8079833984375E-05	0.09783935546875
945	0.09521484375	29.4565739256293	-3.94683837890625E-05	0.095306396484375
946	0.0927734375	29.4809739255677	-3.861083984375E-05	0.092926025390625
947	0.09033203125	29.5053739255061	-4.01947021484375E-05	0.090423583984375
948	0.087890625	29.5297739254445	-3.9825439453125E-05	0.087921142578125
949	0.08544921875	29.5541739253829	-4.0313720703125E-05	0.085540771484375
950	0.0830078125	29.5785739253213	-4.0728759765625E-05	0.083160400390625
951	0.08056640625	29.6029739252597	-4.04998779296875E-05	0.080657958984375
952	0.078125	29.6273739251981	-4.17449951171875E-05	0.07818603515625
953	0.07568359375	29.6517739251365	-4.06951904296875E-05	0.075775146484375
954	0.0732421875	29.6761739250749	-4.200439453125E-05	0.0733642578125
955	0.07080078125	29.7005739250133	-4.1180419921875E-05	0.0709228515625
956	0.068359375	29.7249739249517	-4.23675537109375E-05	0.068511962890625
957	0.06591796875	29.7493739248901	-4.23919677734375E-05	0.066070556640625
958	0.0634765625	29.7737739248284	-4.24591064453125E-05	0.063629150390625
959	0.06103515625	29.7981739247668	-4.3218994140625E-05	0.06121826171875
960	0.05859375	29.8225739247052	-4.26055908203125E-05	0.0587158203125
961	0.05615234375	29.8469739246436	-4.40643310546875E-05	0.05633544921875
962	0.0537109375	29.871373924582	-4.30908203125E-05	0.053863525390625
963	0.05126953125	29.8957739245204	-4.41864013671875E-05	0.051422119140625
964	0.048828125	29.9201739244588	-4.37164306640625E-05	0.048974609375
965	0.04638671875	29.9445739243972	-4.4488525390625E-05	0.0465545654296875
966	0.0439453125	29.9689739243356	-4.4891357421875E-05	0.0440887451171875
967	0.04150390625	29.993373924274	-4.4622802734375E-05	0.0416595458984375
968	0.0390625	30.0177739242124	-4.55810546875E-05	0.0392120361328125
969	0.03662109375	30.0421739241508	-4.47021484375E-05	0.0367828369140625
970	0.0341796875	30.0665739240892	-4.62066650390625E-05	0.0343414306640625
971	0.03173828125	30.0909739240276	-4.53399658203125E-05	0.0318817138671875
972	0.029296875	30.115373923966	-4.62860107421875E-05	0.029449462890625
973	0.02685546875	30.1397739239044	-4.62188720703125E-05	0.0270233154296875
974	0.0244140625	30.1641739238428	-4.661865234375E-05	0.0245849609375
975	0.02197265625	30.1885739237812	-4.75006103515625E-05	0.0221343994140625
976	0.01953125	30.2129739237196	-4.6923828125E-05	0.0196868896484375
977	0.01708984375	30.237373923658	-4.82086181640625E-05	0.0172637939453125
978	0.0146484375	30.2617739235964	-4.730224609375E-05	0.01480712890625
979	0.01220703125	30.2861739235348	-4.8773193359375E-05	0.0123291015625
980	0.009765625	30.3105739234732	-4.833984375E-05	0.00992736816406251
981	0.00732421875	30.3349739234116	-4.89501953125E-05	0.0074737548828125
982	0.0048828125	30.3593739233499	-4.9224853515625E-05	0.00505676269531249
983	0.00244140625	30.3837739232883	-4.925537109375E-05	0.002606201171875
984	0	30.4081739232267	-5.04150390625E-05	0.0001373291015625
985	0.00244140625	30.4325739231651	-4.901123046875E-05	0.002606201171875
986	0.0048828125	30.4569739231035	-4.98046875E-05	0.0050537109375
