Index	Time (s)	WE(1).Potential (V)	Corrected time (s)	dWE(1).Potential/dt (V/s)	OCP value (V)
1	41.1610288960784	0.3477783203125	0	0	0.37699291752834
2	41.2610288958259	0.34783935546875	0.0999999997475243	0.000610360875725746	
3	41.3610288955734	0.352203369140625	0.199999999495049	0.0651560202240944	
4	41.461028895321	0.352020263671875	0.299999999242573	-0.0540678016841412	
5	41.5610288950685	0.35345458984375	0.399999998990097	0.0429795794188976	
6	41.661028894816	0.3543701171875	0.499999998737621	-0.000559497450012714	
7	41.7610288945635	0.35577392578125	0.599999998485146	0.0198367293924093	
8	41.8610288943111	0.35791015625	0.69999999823267	0.0258386097848415	
9	41.9610288940586	0.3609619140625	0.799999997980194	0.0357061102986336	
10	42.0610288938061	0.364501953125	0.899999997727718	0.0364181995391846	
11	42.1610288935536	0.36761474609375	0.999999997475243	0.0259403381496668	
12	42.2610288933012	0.36578369140625	1.09999999722277	-0.0580860115587711	
13	42.3610288930487	0.364288330078125	1.19999999697029	0.00432338938117027	
14	42.4610288927962	0.365203857421875	1.29999999671782	0.0281274635344744	
15	42.5610288925437	0.36810302734375	1.39999999646534	0.0374863296747208	
16	42.6610288922913	0.365509033203125	1.49999999621286	-0.0783296450972557	
17	42.7610288920388	0.36627197265625	1.59999999596039	0.0539152100682259	
18	42.8610288917863	0.36737060546875	1.69999999570791	0.00259403372183442	
19	42.9610288915338	0.368743896484375	1.79999999545544	0.0149029782041907	
20	43.0610288912814	0.36865234375	1.89999999520296	-0.0140383001416922	
21	43.1610288910289	0.370330810546875	1.99999999495049	0.0364181995391846	
22	43.2610288907764	0.3704833984375	2.09999999469801	-0.0170901045203209	
23	43.3610288905239	0.368377685546875	2.19999999444553	-0.0347905717790127	
24	43.4610288902715	0.365142822265625	2.29999999419306	-0.034231074154377	
25	43.561028890019	0.3697509765625	2.39999999394058	0.115205615758896	
26	43.6610288897665	0.3685302734375	2.49999999368811	-0.0869255587458611	
27	43.761028889514	0.37298583984375	2.59999999343563	0.111289136111736	
28	43.8610288892615	0.371612548828125	2.69999999318316	-0.0812288597226143	
29	43.9610288890091	0.3704833984375	2.79999999293068	0.0101726809516549	
30	44.0610288887566	0.37091064453125	2.8999999926782	0.0164288803935051	
31	44.1610288885041	0.37109375	2.99999999242573	-0.00539152091369033	
32	44.2610288882516	0.3724365234375	3.09999999217325	0.0239058006554842	
33	44.3610288879992	0.372161865234375	3.19999999192078	-0.0200910456478596	
34	44.4610288877467	0.37445068359375	3.2999999916683	0.0496426858007908	
35	44.5610288874942	0.373779296875	3.39999999141583	-0.0399277731776237	
36	44.6610288872417	0.370758056640625	3.49999999116335	-0.0399277731776237	
37	44.7610288869893	0.3734130859375	3.59999999091087	0.0816866308450699	
38	44.8610288867368	0.37109375	3.6999999906584	-0.0835685729980469	
39	44.9610288864843	0.369415283203125	3.79999999040592	0.00513720419257879	
40	45.0610288862318	0.367767333984375	3.89999999015345	-0.0183616895228624	
41	45.1610288859794	0.370452880859375	3.99999998990097	0.062867172062397	
42	45.2610288857269	0.368896484375	4.0999999896485	-0.0653594806790352	
43	45.3610288854744	0.369964599609375	4.19999998939602	0.046692606061697	
44	45.4610288852219	0.369171142578125	4.29999998914354	-0.0321965366601944	
45	45.5610288849695	0.369110107421875	4.39999998889107	0.0116985831409693	
46	45.661028884717	0.365692138671875	4.49999998863859	-0.064596526324749	
47	45.7610288844645	0.368133544921875	4.59999998838612	0.0844332575798035	
48	45.861028884212	0.37054443359375	4.69999998813364	0.00432338938117027	
49	45.9610288839596	0.3665771484375	4.79999998788116	-0.0927239879965782	
50	46.0610288837071	0.36798095703125	4.89999998762869	0.0800589993596077	
51	46.1610288834546	0.36944580078125	4.99999998737621	-0.00274662394076586	
52	46.2610288832021	0.36871337890625	5.09999998712374	-0.0258386097848415	
53	46.3610288829497	0.37042236328125	5.19999998687126	0.0447597987949848	
54	46.4610288826972	0.36700439453125	5.29999998661879	-0.0850436165928841	
55	46.5610288824447	0.364776611328125	5.39999998636631	0.00473029678687453	
56	46.6610288821922	0.3638916015625	5.49999998611383	-0.00162762904074043	
57	46.7610288819398	0.366790771484375	5.59999998586136	0.0560514740645885	
58	46.8610288816873	0.366180419921875	5.69999998560888	-0.0479641929268837	
59	46.9610288814348	0.368865966796875	5.79999998535641	0.066020704805851	
60	47.0610288811823	0.36932373046875	5.89999998510393	-0.0249739326536655	
61	47.1610288809298	0.37030029296875	5.99999998485146	0.0215152204036713	
62	47.2610288806774	0.368316650390625	6.09999998459898	-0.0462348349392414	
63	47.3610288804249	0.36431884765625	6.1999999843465	-0.0468960590660572	
64	47.4610288801724	0.362396240234375	6.29999998409403	0.00478116003796458	
65	47.5610288799199	0.365081787109375	6.39999998384155	0.0583403259515762	
66	47.6610288796675	0.3690185546875	6.49999998358908	0.0344345271587372	
67	47.761028879415	0.3721923828125	6.5999999833366	0.021210040897131	
68	47.8610288791625	0.37188720703125	6.69999998308413	-0.029500775039196	
69	47.96102887891	0.370849609375	6.79999998283165	-0.00488288700580597	
70	48.0610288786576	0.3702392578125	6.89999998257917	-0.000101726815046277	
71	48.1610288784051	0.37237548828125	6.9999999823267	0.0428269878029823	
72	48.2610288781526	0.369659423828125	7.09999998207422	-0.0767528787255287	
73	48.3610288779001	0.37091064453125	7.19999998182175	0.0617481768131256	
74	48.4610288776477	0.37115478515625	7.29999998156927	-0.0191755034029484	
75	48.5610288773952	0.371978759765625	7.3999999813168	0.0164288803935051	
76	48.6610288771427	0.369537353515625	7.49999998106432	-0.0535591654479504	
77	48.7610288768902	0.371368408203125	7.59999998081184	0.0647999793291092	
78	48.8610288766378	0.36767578125	7.69999998055937	-0.0971999689936638	
79	48.9610288763853	0.3704833984375	7.79999998030689	0.100658677518368	
80	49.0610288761328	0.370574951171875	7.89999998005442	-0.043386485427618	
81	49.1610288758803	0.37152099609375	7.99999997980194	0.0256351567804813	
82	49.2610288756279	0.371917724609375	8.09999997954947	-0.00345871155150235	
83	49.3610288753754	0.37017822265625	8.19999997929699	-0.0333663932979107	
84	49.4610288751229	0.37066650390625	8.29999997904451	0.0305689070373774	
85	49.5610288748704	0.373260498046875	8.39999997879204	0.0360621549189091	
86	49.661028874618	0.371246337890625	8.49999997853956	-0.0655629336833954	
87	49.7610288743655	0.3726806640625	8.59999997828709	0.0584420524537563	
88	49.861028874113	0.367584228515625	8.69999997803461	-0.116884104907513	
89	49.9610288738605	0.367767333984375	8.79999997778214	0.0675974637269974	
90	50.0610288736081	0.36737060546875	8.89999997752966	-0.0263981074094772	
91	50.1610288733556	0.37371826171875	8.99999997727718	0.121614404022694	
92	50.2610288731031	0.37530517578125	9.09999997702471	-0.0462857000529766	
93	50.3610288728506	0.36907958984375	9.19999997677223	-0.111492589116096	
94	50.4610288725981	0.367279052734375	9.29999997651976	0.0449123866856098	
95	50.5610288723457	0.3668212890625	9.39999997626728	-0.00813814532011747	
96	50.6610288720932	0.366973876953125	9.49999997601481	0.00213626306504011	
97	50.7610288718407	0.36688232421875	9.59999997576233	-0.00498461397364736	
98	50.8610288715882	0.367431640625	9.69999997550985	0.0116477198898792	
99	50.9610288713358	0.37030029296875	9.79999997525738	0.0458787940442562	
100	51.0610288710833	0.37237548828125	9.8999999750049	0.00640878919512033	
101	51.1610288708308	0.371673583984375	9.99999997475243	-0.0275171026587486	
102	51.2610288705783	0.371185302734375	10.0999999745	0.00615447200834751	
103	51.3610288703259	0.36883544921875	10.1999999742475	-0.0397243201732635	
104	51.4610288700734	0.371368408203125	10.299999973995	0.0722260400652885	
105	51.5610288698209	0.366729736328125	10.3999999737425	-0.122428216040134	
106	51.6610288695684	0.370758056640625	10.49999997349	0.136415660381317	
107	51.761028869316	0.370513916015625	10.5999999732376	-0.0669362396001816	
108	51.8610288690635	0.37445068359375	10.6999999729851	0.0884514600038528	
109	51.961028868811	0.371795654296875	10.7999999727326	-0.0954197496175766	
110	52.0610288685585	0.372802734375	10.8999999724801	0.0625619888305664	
111	52.1610288683061	0.371978759765625	10.9999999722277	-0.0357061102986336	
112	52.2610288680536	0.370635986328125	11.0999999719752	-0.0116477198898792	
113	52.3610288678011	0.36968994140625	11.1999999717227	-0.00442511634901166	
114	52.4610288675486	0.37054443359375	11.2999999714702	0.0222273077815771	
115	52.5610288672962	0.37506103515625	11.3999999712178	0.0696828663349152	
116	52.6610288670437	0.373291015625	11.4999999709653	-0.0822969898581505	
117	52.7610288667912	0.372100830078125	11.5999999707128	0.013885710388422	
118	52.8610288665387	0.373687744140625	11.6999999704603	0.0370794236660004	
119	52.9610288662863	0.37176513671875	11.7999999702079	-0.0577299669384956	
120	53.0610288660338	0.36883544921875	11.8999999699554	-0.0259912014007568	
121	53.1610288657813	0.37200927734375	11.9999999697029	0.0859591588377953	
122	53.2610288655288	0.37396240234375	12.0999999694504	-0.0109864957630634	
123	53.3610288652764	0.374664306640625	12.199999969198	0.000661224301438779	
124	53.4610288650239	0.373291015625	12.2999999689455	-0.0268558785319328	
125	53.5610288647714	0.37127685546875	12.399999968693	-0.0185651425272226	
126	53.6610288645189	0.370849609375	12.4999999684405	0.0110882222652435	
127	53.7610288642665	0.372344970703125	12.5999999681881	0.0256860200315714	
128	53.861028864014	0.374298095703125	12.6999999679356	0.0169375147670507	
129	53.9610288637615	0.371917724609375	12.7999999676831	-0.061442993581295	
130	54.061028863509	0.373077392578125	12.8999999674306	0.055542841553688	
131	54.1610288632565	0.375946044921875	12.9999999671782	0.0311284046620131	
132	54.2610288630041	0.373260498046875	13.0999999669257	-0.0788382813334465	
133	54.3610288627516	0.37139892578125	13.1999999666732	0.00676483288407326	
134	54.4610288624991	0.372406005859375	13.2999999664207	0.0312301311641932	
135	54.5610288622466	0.375732421875	13.3999999661683	0.0430304408073425	
136	54.6610288619942	0.376983642578125	13.4999999659158	-0.0125123979523778	
137	54.7610288617417	0.375213623046875	13.5999999656633	-0.035960428416729	
138	54.8610288614892	0.375213623046875	13.6999999654108	0.0248213429003954	
139	54.9610288612367	0.376983642578125	13.7999999651583	0.0265506990253925	
140	55.0610288609843	0.376220703125	13.8999999649059	-0.0346379801630974	
141	55.1610288607318	0.375823974609375	13.9999999646534	0.00752778397873044	
142	55.2610288604793	0.375030517578125	14.0999999644009	-0.0124615347012877	
143	55.3610288602268	0.376434326171875	14.1999999641484	0.0336715765297413	
144	55.4610288599744	0.37322998046875	14.299999963896	-0.0777701511979103	
145	55.5610288597219	0.370635986328125	14.3999999636435	-0.00549324788153172	
146	55.6610288594694	0.372772216796875	14.499999963391	0.0587472356855869	
147	55.7610288592169	0.373321533203125	14.5999999631385	-0.0234988946467638	
148	55.8610288589645	0.375030517578125	14.6999999628861	0.0320439450442791	
149	55.961028858712	0.376983642578125	14.7999999626336	0.0177004653960466	
150	56.0610288584595	0.373504638671875	14.8999999623811	-0.0808728188276291	
151	56.161028858207	0.375152587890625	14.9999999621286	0.0773123800754547	
152	56.2610288579546	0.3779296875	15.0999999618762	0.0200910456478596	
153	56.3610288577021	0.371856689453125	15.1999999616237	-0.13824674487114	
154	56.4610288574496	0.371978759765625	15.2999999613712	0.0823478549718857	
155	56.5610288571971	0.376068115234375	15.3999999611187	0.0533048510551453	
156	56.6610288569447	0.373291015625	15.4999999608663	-0.0982172340154648	
157	56.7610288566922	0.37298583984375	15.5999999606138	0.0404364094138145	
158	56.8610288564397	0.37225341796875	15.6999999603613	-0.0191246401518583	
159	56.9610288561872	0.37176513671875	15.7999999601088	-0.0014241753378883	
160	57.0610288559348	0.37078857421875	15.8999999598564	-0.0146486610174179	
161	57.1610288556823	0.3729248046875	15.9999999596039	0.0489305965602398	
162	57.2610288554298	0.3692626953125	16.0999999593514	-0.0953180268406868	
163	57.3610288551773	0.368133544921875	16.1999999590989	0.0291447322815657	
164	57.4610288549248	0.3712158203125	16.2999999588465	0.0574756488204002	
165	57.5610288546724	0.3714599609375	16.399999958594	-0.035248339176178	
166	57.6610288544199	0.373260498046875	16.4999999583415	0.0404364094138145	
167	57.7610288541674	0.37091064453125	16.599999958089	-0.0632740780711174	
168	57.8610288539149	0.3719482421875	16.6999999578366	0.052440170198679	
169	57.9610288536625	0.370849609375	16.7999999575841	-0.040080364793539	
170	58.06102885341	0.371917724609375	16.8999999573316	0.0358587019145489	
171	58.1610288531575	0.36981201171875	16.9999999570791	-0.054729025810957	
172	58.261028852905	0.3660888671875	17.0999999568267	-0.0401312261819839	
173	58.3610288526526	0.3704833984375	17.1999999565742	0.116985835134983	
174	58.4610288524001	0.37353515625	17.2999999563217	-0.00773123791441321	
175	58.5610288521476	0.371978759765625	17.3999999560692	-0.0494900941848755	
176	58.6610288518951	0.374298095703125	17.4999999558167	0.0708527266979218	
177	58.7610288516427	0.371185302734375	17.5999999555643	-0.0893161445856094	
178	58.8610288513902	0.3721923828125	17.6999999553118	0.0625111237168312	
179	58.9610288511377	0.373046875	17.7999999550593	-0.00645965244621038	
180	59.0610288508852	0.36956787109375	17.8999999548068	-0.0703949555754662	
181	59.1610288506328	0.371307373046875	17.9999999545544	0.0753287076950073	
182	59.2610288503803	0.3731689453125	18.0999999543019	0.00223798980005085	
183	59.3610288501278	0.370147705078125	18.1999999540494	-0.0713104978203773	
184	59.4610288498753	0.36865234375	18.2999999537969	0.0140383001416922	
185	59.5610288496229	0.3687744140625	18.3999999535445	0.00961318425834179	
186	59.6610288493704	0.37127685546875	18.499999953292	0.0394700020551682	
187	59.7610288491179	0.369232177734375	18.5999999530395	-0.0662750154733658	
188	59.8610288488654	0.369598388671875	18.699999952787	0.0389105044305325	
189	59.961028848613	0.36651611328125	18.7999999525346	-0.0675974637269974	
190	60.0610288483605	0.37078857421875	18.8999999522821	0.115510798990726	
191	60.161028848108	0.369140625	18.9999999520296	-0.0903334096074104	
192	60.2610288478555	0.369903564453125	19.0999999517771	0.0474555566906929	
193	60.3610288476031	0.3721923828125	19.1999999515247	0.0275679659098387	
194	60.4610288473506	0.3702392578125	19.2999999512722	-0.0599679574370384	
195	60.5610288470981	0.3720703125	19.3999999510197	0.0639861673116684	
196	60.6610288468456	0.3712158203125	19.4999999507672	-0.0435390770435333	
197	60.7610288465931	0.37017822265625	19.5999999505148	-0.00295007764361799	
198	60.8610288463407	0.37005615234375	19.6999999502623	0.00701915007084608	
199	60.9610288460882	0.370513916015625	19.7999999500098	0.00635792594403028	
200	61.0610288458357	0.37164306640625	19.8999999497573	0.0149538414552808	
201	61.1610288455832	0.36920166015625	19.9999999495049	-0.056407518684864	
202	61.2610288453308	0.368927001953125	20.0999999492524	0.0272119231522083	
203	61.3610288450783	0.370697021484375	20.1999999489999	0.0275171026587486	
204	61.4610288448258	0.369140625	20.2999999487474	-0.0501004569232464	
205	61.5610288445733	0.368682861328125	20.399999948495	0.0156659297645092	
206	61.6610288443209	0.369781494140625	20.4999999482425	0.0202944986522198	
207	61.7610288440684	0.3714599609375	20.59999994799	0.0164288803935051	
208	61.8610288438159	0.37445068359375	20.6999999477375	0.0389105044305325	
209	61.9610288435634	0.370635986328125	20.799999947485	-0.0992345064878464	
210	62.061028843311	0.3712158203125	20.8999999472326	0.0651051625609398	
211	62.1610288430585	0.36639404296875	20.9999999469801	-0.107881285250187	
212	62.261028842806	0.368865966796875	21.0999999467276	0.103507034480572	
213	62.3610288425535	0.37164306640625	21.1999999464751	0.00600188178941607	
214	62.4610288423011	0.37359619140625	21.2999999462227	0.0116477198898792	
215	62.5610288420486	0.3721923828125	21.3999999459702	-0.039266549050808	
216	62.6610288417961	0.3756103515625	21.4999999457177	0.0855522528290749	
217	62.7610288415436	0.37432861328125	21.5999999454652	-0.068055234849453	
218	62.8610288412912	0.3736572265625	21.6999999452128	0.0140383001416922	
219	62.9610288410387	0.372314453125	21.7999999449603	-0.0210574511438608	
220	63.0610288407862	0.37109375	21.8999999447078	-0.00895195920020342	
221	63.1610288405337	0.372772216796875	21.9999999444553	0.0405381359159946	
222	63.2610288402813	0.370819091796875	22.0999999442029	-0.0594593212008476	
223	63.3610288400288	0.374786376953125	22.1999999439504	0.101116448640823	
224	63.4610288397763	0.37353515625	22.2999999436979	-0.0757356137037277	
225	63.5610288395238	0.37518310546875	22.3999999434454	0.0580351464450359	
226	63.6610288392714	0.37713623046875	22.499999943193	0.0124106714501977	
227	63.7610288390189	0.37579345703125	22.5999999429405	-0.0419114455580711	
228	63.8610288387664	0.37457275390625	22.699999942688	-0.000203453630092554	
229	63.9610288385139	0.371612548828125	22.7999999424355	-0.0445054806768894	
230	64.0610288382614	0.373260498046875	22.8999999421831	0.0606800429522991	
231	64.161028838009	0.373138427734375	22.9999999419306	-0.0313318595290184	
232	64.2610288377565	0.37542724609375	23.0999999416781	0.0488797351717949	
233	64.361028837504	0.3775634765625	23.1999999414256	0.0120546277612448	
234	64.4610288372515	0.37762451171875	23.2999999411732	-0.0161745641380548	
235	64.5610288369991	0.37481689453125	23.3999999409207	-0.0450649783015251	
236	64.6610288367466	0.37701416015625	23.4999999406682	0.0732433050870895	
237	64.7610288364941	0.375091552734375	23.5999999404157	-0.0702423676848412	
238	64.8610288362416	0.37579345703125	23.6999999401633	0.0426235347986221	
239	64.9610288359892	0.374176025390625	23.7999999399108	-0.044251162558794	
240	65.0610288357367	0.3751220703125	23.8999999396583	0.0385544635355473	
241	65.1610288354842	0.377532958984375	23.9999999394058	0.027771420776844	
242	65.2610288352317	0.377655029296875	24.0999999391533	-0.0227359421551228	
243	65.3610288349793	0.373748779296875	24.1999999389009	-0.0650034323334694	
244	65.4610288347268	0.37567138671875	24.2999999386484	0.0812288597226143	
245	65.5610288344743	0.3748779296875	24.3999999383959	-0.049998726695776	
246	65.6610288342218	0.376251220703125	24.4999999381434	0.0408433154225349	
247	65.7610288339694	0.372528076171875	24.599999937891	-0.0869255587458611	
248	65.8610288337169	0.373809814453125	24.6999999376385	0.0715139508247375	
249	65.9610288334644	0.373199462890625	24.799999937386	-0.0385544635355473	
250	66.0610288332119	0.37066650390625	24.8999999371335	-0.0350448861718178	
251	66.1610288329595	0.373260498046875	24.9999999368811	0.0750743895769119	
252	66.261028832707	0.372955322265625	25.0999999366286	-0.0443020276725292	
253	66.3610288324545	0.370208740234375	25.1999999363761	-0.0381475538015366	
254	66.461028832202	0.371490478515625	25.2999999361236	0.0545255728065968	
255	66.5610288319496	0.37408447265625	25.3999999358712	0.0234480295330286	
256	66.6610288316971	0.373046875	25.4999999356187	-0.0450141131877899	
257	66.7610288314446	0.36798095703125	25.5999999353662	-0.0721243098378181	
258	66.8610288311921	0.370819091796875	25.6999999351137	0.107677832245827	
259	66.9610288309397	0.37005615234375	25.7999999348613	-0.0639861673116684	
260	67.0610288306872	0.36798095703125	25.8999999346088	-0.019684137776494	
261	67.1610288304347	0.36663818359375	25.9999999343563	-0.00295007764361799	
262	67.2610288301822	0.370147705078125	26.0999999341038	0.0730907171964645	
263	67.3610288299298	0.3685302734375	26.1999999338514	-0.0750743895769119	
264	67.4610288296773	0.369384765625	26.2999999335989	0.0462348349392414	
265	67.5610288294248	0.37139892578125	26.3999999333464	0.0215660836547613	
266	67.6610288291723	0.369903564453125	26.4999999330939	-0.0480659194290638	
267	67.7610288289198	0.372039794921875	26.5999999328415	0.0633249431848526	
268	67.8610288286674	0.3719482421875	26.699999932589	-0.0315861739218235	
269	67.9610288284149	0.3712158203125	26.7999999323365	-0.00523893069475889	
270	68.0610288281624	0.369964599609375	26.899999932084	-0.014699524268508	
271	68.1610288279099	0.372772216796875	26.9999999318316	0.0636301189661026	
272	68.2610288276575	0.37158203125	27.0999999315791	-0.0587472356855869	
273	68.361028827405	0.374053955078125	27.1999999313266	0.0685638710856438	
274	68.4610288271525	0.3740234375	27.2999999310741	-0.0333663932979107	
275	68.5610288269	0.373931884765625	27.3999999308217	0.00691742310300469	
276	68.6610288266476	0.367919921875	27.4999999305692	-0.109254598617554	
277	68.7610288263951	0.369232177734375	27.5999999303167	0.0938938483595848	
278	68.8610288261426	0.36944580078125	27.6999999300642	-0.0314335860311985	
279	68.9610288258901	0.372650146484375	27.7999999298117	0.0606291815638542	
280	69.0610288256377	0.373443603515625	27.8999999295593	-0.022125581279397	
281	69.1610288253852	0.37176513671875	27.9999999293068	-0.0293481852859259	
282	69.2610288251327	0.3782958984375	28.0999999290543	0.141959771513939	
283	69.3610288248802	0.37530517578125	28.1999999288018	-0.136619105935097	
284	69.4610288246278	0.37371826171875	28.2999999285494	0.0275679659098387	
285	69.5610288243753	0.374542236328125	28.3999999282969	0.023651484400034	
286	69.6610288241228	0.372406005859375	28.4999999280444	-0.0540678016841412	
287	69.7610288238703	0.371795654296875	28.5999999277919	0.0164797436445951	
288	69.8610288236179	0.372833251953125	28.6999999275395	0.0190229136496782	
289	69.9610288233654	0.372711181640625	28.799999927287	-0.016378017142415	
290	70.0610288231129	0.376800537109375	28.8999999270345	0.0798555463552475	
291	70.1610288228604	0.374755859375	28.999999926782	-0.0856031104922295	
292	70.261028822608	0.371429443359375	29.0999999265296	-0.0234988946467638	
293	70.3610288223555	0.370697021484375	29.1999999262771	0.0185651425272226	
294	70.461028822103	0.36572265625	29.2999999260246	-0.0937412604689598	
295	70.5610288218505	0.368438720703125	29.3999999257721	0.105388976633549	
296	70.6610288215981	0.366241455078125	29.4999999255197	-0.0885531902313232	
297	70.7610288213456	0.36865234375	29.5999999252672	0.0788891464471817	
298	70.8610288210931	0.36944580078125	29.6999999250147	-0.0209048595279455	
299	70.9610288208406	0.370819091796875	29.7999999247622	0.0239566639065742	
300	71.0610288205881	0.37017822265625	29.8999999245098	-0.0251265224069357	
301	71.1610288203357	0.370391845703125	29.9999999242573	0.0159711092710495	
302	71.2610288200832	0.3726806640625	30.0999999240048	0.0373337417840958	
303	71.3610288198307	0.372406005859375	30.1999999237523	-0.031026678159833	
304	71.4610288195782	0.3740234375	30.2999999234999	0.0404872708022594	
305	71.5610288193258	0.373870849609375	30.3999999232474	-0.0225833524018526	
306	71.6610288190733	0.372802734375	30.4999999229949	-0.0124106714501977	
307	71.7610288188208	0.372955322265625	30.5999999227424	0.014750387519598	
308	71.8610288185683	0.37225341796875	30.69999992249	-0.0182090997695923	
309	71.9610288183159	0.372344970703125	30.7999999222375	0.0103761348873377	
310	72.0610288180634	0.36895751953125	30.899999921985	-0.0655120685696602	
311	72.1610288178109	0.370269775390625	30.9999999217325	0.063884437084198	
312	72.2610288175584	0.374786376953125	31.09999992148	0.0562040656805038	
313	72.361028817306	0.37255859375	31.1999999212276	-0.0891635492444038	
314	72.4610288170535	0.373748779296875	31.2999999209751	0.062867172062397	
315	72.561028816801	0.3717041015625	31.3999999207226	-0.0587980970740318	
316	72.6610288165485	0.373626708984375	31.4999999204701	0.0630706250667572	
317	72.7610288162961	0.3739013671875	31.5999999202177	-0.0242109820246696	
318	72.8610288160436	0.37640380859375	31.6999999199652	0.0490831881761551	
319	72.9610288157911	0.375396728515625	31.7999999197127	-0.0467434711754322	
320	73.0610288155386	0.376220703125	31.8999999194602	0.0351974777877331	
321	73.1610288152862	0.372772216796875	31.9999999192078	-0.0761933848261833	
322	73.2610288150337	0.374542236328125	32.0999999189553	0.0754304304718971	
323	73.3610288147812	0.378082275390625	32.1999999187028	0.0327560342848301	
324	73.4610288145287	0.37567138671875	32.2999999184503	-0.0796012282371521	
325	73.5610288142763	0.372772216796875	32.3999999181979	-0.0132244853302836	
326	73.6610288140238	0.371856689453125	32.4999999179454	0.00900282338261604	
327	73.7610288137713	0.3709716796875	32.5999999176929	-0.0152081586420536	
328	73.8610288135188	0.372467041015625	32.6999999174404	0.0346888415515423	
329	73.9610288132664	0.372283935546875	32.799999917188	-0.0237532109022141	
330	74.0610288130139	0.371795654296875	32.8999999169355	-0.00183108262717724	
331	74.1610288127614	0.371917724609375	32.999999916683	0.00732433050870895	
332	74.2610288125089	0.3717041015625	33.0999999164305	-0.00696828681975603	
333	74.3610288122564	0.3707275390625	33.1999999161781	-0.0150047047063708	
334	74.461028812004	0.372802734375	33.2999999159256	0.0487271435558796	
335	74.5610288117515	0.372955322265625	33.3999999156731	-0.0246687512844801	
336	74.661028811499	0.372467041015625	33.4999999154206	-0.00381475547328591	
337	74.7610288112465	0.3743896484375	33.5999999151682	0.0414536744356155	
338	74.8610288109941	0.37200927734375	33.6999999149157	-0.0676991939544678	
339	74.9610288107416	0.371490478515625	33.7999999146632	0.0246687512844801	
340	75.0610288104891	0.3707275390625	33.8999999144107	-0.0158693827688694	
341	75.1610288102366	0.371063232421875	33.9999999141583	0.0133262127637863	
342	75.2610288099842	0.37322998046875	34.0999999139058	0.0332646667957306	
343	75.3610288097317	0.37091064453125	34.1999999136533	-0.0666819289326668	
344	75.4610288094792	0.3729248046875	34.2999999134008	0.071208767592907	
345	75.5610288092267	0.37213134765625	34.3999999131483	-0.0457770675420761	
346	75.6610288089743	0.37200927734375	34.4999999128959	0.0137331197038293	
347	75.7610288087218	0.37060546875	34.5999999126434	-0.0269576050341129	
348	75.8610288084693	0.373046875	34.6999999123909	0.0607309080660343	
349	75.9610288082168	0.37347412109375	34.7999999121384	-0.025329977273941	
350	76.0610288079644	0.374176025390625	34.899999911886	0.0160219725221395	
351	76.1610288077119	0.375579833984375	34.9999999116335	0.0189720503985882	
352	76.2610288074594	0.37615966796875	35.099999911381	-0.0034078483004123	
353	76.3610288072069	0.374237060546875	35.1999999111285	-0.0373337417840958	
354	76.4610288069545	0.374114990234375	35.2999999108761	0.022125581279397	
355	76.561028806702	0.373016357421875	35.3999999106236	-0.0251265224069357	
356	76.6610288064495	0.37255859375	35.4999999103711	0.0040182089433074	
357	76.761028806197	0.370941162109375	35.5999999101186	-0.0279748737812042	
358	76.8610288059446	0.370635986328125	35.6999999098662	0.0117494473233819	
359	76.9610288056921	0.370361328125	35.7999999096137	-0.00686655985191464	
360	77.0610288054396	0.373016357421875	35.8999999093612	0.0508634075522423	
361	77.1610288051871	0.372833251953125	35.9999999091087	-0.035248339176178	
362	77.2610288049347	0.3712158203125	36.0999999088563	-0.0186668708920479	
363	77.3610288046822	0.372772216796875	36.1999999086038	0.0467943325638771	
364	77.4610288044297	0.373382568359375	36.2999999083513	-0.0123598081991076	
365	77.5610288041772	0.372314453125	36.3999999080988	-0.0215152204036713	
366	77.6610288039248	0.3731689453125	36.4999999078464	0.0301619991660118	
367	77.7610288036723	0.37060546875	36.5999999075939	-0.0605274550616741	
368	77.8610288034198	0.372833251953125	36.6999999073414	0.0735993459820747	
369	77.9610288031673	0.376068115234375	36.7999999070889	0.0247704796493053	
370	78.0610288029148	0.376800537109375	36.8999999068365	-0.0168866515159607	
371	78.1610288026624	0.373382568359375	36.999999906584	-0.060425728559494	
372	78.2610288024099	0.369293212890625	37.0999999063315	-0.03265430778265	
373	78.3610288021574	0.369537353515625	37.199999906079	0.0407924503087997	
374	78.4610288019049	0.37042236328125	37.2999999058266	-0.000254317041253671	
375	78.5610288016525	0.373443603515625	37.3999999055741	0.0458787940442562	
376	78.6610288014	0.373016357421875	37.4999999053216	-0.0401312261819839	
377	78.7610288011475	0.37628173828125	37.5999999050691	0.0749217942357063	
378	78.861028800895	0.374786376953125	37.6999999048167	-0.0669362396001816	
379	78.9610288006426	0.37799072265625	37.7999999045642	0.0870781540870667	
380	79.0610288003901	0.375091552734375	37.8999999043117	-0.095521479845047	
381	79.1610288001376	0.376190185546875	37.9999999040592	0.0646473914384842	
382	79.2610287998851	0.373504638671875	38.0999999038067	-0.0717174038290977	
383	79.3610287996327	0.37744140625	38.1999999035543	0.107169196009636	
384	79.4610287993802	0.37969970703125	38.2999999033018	-0.0134788025170565	
385	79.5610287991277	0.3814697265625	38.3999999030493	0.0192263685166836	
386	79.6610287988752	0.379180908203125	38.4999999027968	-0.0550850704312325	
387	79.7610287986228	0.380645751953125	38.5999999025444	0.0594593212008476	
388	79.8610287983703	0.379425048828125	38.6999999022919	-0.0470995157957077	
389	79.9610287981178	0.377288818359375	38.7999999020394	-0.0200401823967695	
390	80.0610287978653	0.37890625	38.8999999017869	0.0505073629319668	
391	80.1610287976129	0.378448486328125	38.9999999015345	-0.034383662045002	
392	80.2610287973604	0.375579833984375	39.099999901282	-0.0418605841696262	
393	80.3610287971079	0.378936767578125	39.1999999010295	0.0934869423508644	
394	80.4610287968554	0.376373291015625	39.299999900777	-0.0957249328494072	
395	80.561028796603	0.375823974609375	39.3999999005246	0.031026678159833	
396	80.6610287963505	0.374969482421875	39.4999999002721	-0.0178021918982267	
397	80.761028796098	0.373870849609375	39.5999999000196	-0.0120037635788321	
398	80.8610287958455	0.37322998046875	39.6999998997671	-0.00178021925967187	
399	80.9610287955931	0.37591552734375	39.7999998995147	0.0530505329370499	
400	81.0610287953406	0.37738037109375	39.8999998992622	-0.00661224266514182	
401	81.1610287950881	0.378692626953125	39.9999998990097	0.0159202460199594	
402	81.2610287948356	0.378326416015625	40.0999998987572	-0.0171409677714109	
403	81.3610287945831	0.379150390625	40.1999998985048	0.0237532109022141	
404	81.4610287943307	0.37841796875	40.2999998982523	-0.0242618452757597	
405	81.5610287940782	0.376953125	40.3999998979998	-0.0155642023310065	
406	81.6610287938257	0.378204345703125	40.4999998977473	0.0375880561769009	
407	81.7610287935732	0.379058837890625	40.5999998974949	-0.00381475547328591	
408	81.8610287933208	0.3800048828125	40.6999998972424	0.0115459933876991	
409	81.9610287930683	0.37890625	40.7999998969899	-0.0283309165388346	
410	82.0610287928158	0.38177490234375	40.8999998967374	0.0685638710856438	
411	82.1610287925633	0.380401611328125	40.999999896485	-0.0623076744377613	
412	82.2610287923109	0.38177490234375	41.0999998962325	0.0507616810500622	
413	82.3610287920584	0.3775634765625	41.19999989598	-0.0978103280067444	
414	82.4610287918059	0.379974365234375	41.2999998957275	0.0979120582342148	
415	82.5610287915534	0.37896728515625	41.399999895475	-0.0606291815638542	
416	82.661028791301	0.37933349609375	41.4999998952226	0.0264998339116573	
417	82.7610287910485	0.376983642578125	41.5999998949701	-0.050710815936327	
418	82.861028790796	0.382720947265625	41.6999998947176	0.133821621537209	
419	82.9610287905435	0.379180908203125	41.7999998944651	-0.13967090845108	
420	83.0610287902911	0.3770751953125	41.8999998942127	0.0218204017728567	
421	83.1610287900386	0.37652587890625	41.9999998939602	0.00269576045684516	
422	83.2610287897861	0.374969482421875	42.0999998937077	-0.0291447322815657	
423	83.3610287895336	0.378173828125	42.1999998934552	0.0750743895769119	
424	83.4610287892812	0.37799072265625	42.2999998932028	-0.0459296554327011	
425	83.5610287890287	0.379364013671875	42.3999998929503	0.0379949659109116	
426	83.6610287887762	0.37799072265625	42.4999998926978	-0.041809719055891	
427	83.7610287885237	0.372711181640625	42.5999998924453	-0.0761933848261833	
428	83.8610287882713	0.37530517578125	42.6999998921929	0.104575164616108	
429	83.9610287880188	0.3741455078125	42.7999998919404	-0.0691233724355698	
430	84.0610287877663	0.37432861328125	42.8999998916879	0.0255334302783012	
431	84.1610287875138	0.379058837890625	42.9999998914354	0.0807202234864235	
432	84.2610287872614	0.379150390625	43.099999891183	-0.0528979413211346	
433	84.3610287870089	0.377044677734375	43.1999998909305	-0.0239058006554842	
434	84.4610287867564	0.3756103515625	43.299999890678	-0.0014241753378883	
435	84.5610287865039	0.376220703125	43.3999998904255	0.0209048595279455	
436	84.6610287862514	0.37359619140625	43.4999998901731	-0.0600188188254833	
437	84.761028785999	0.37548828125	43.5999998899206	0.0673431530594826	
438	84.8610287857465	0.37322998046875	43.6999998896681	-0.0722260400652885	
439	84.961028785494	0.375640869140625	43.7999998894156	0.0768546089529991	
440	85.0610287852415	0.37359619140625	43.8999998891632	-0.0731415748596191	
441	85.1610287849891	0.3739013671875	43.9999998889107	0.0374863296747208	
442	85.2610287847366	0.377777099609375	44.0999998886582	0.0606800429522991	
443	85.3610287844841	0.3743896484375	44.1999998884057	-0.10630451887846	
444	85.4610287842316	0.376800537109375	44.2999998881533	0.0966404750943184	
445	85.5610287839792	0.372528076171875	44.3999998879008	-0.117748782038689	
446	85.6610287837267	0.372650146484375	44.4999998876483	0.0601205453276634	
447	85.7610287834742	0.37353515625	44.5999998873958	0.000559497450012714	
448	85.8610287832217	0.374786376953125	44.6999998871433	0.0130210323259234	
449	85.9610287829693	0.3736572265625	44.7999998868909	-0.0323491282761097	
450	86.0610287827168	0.37457275390625	44.8999998866384	0.0341293439269066	
451	86.1610287824643	0.373321533203125	44.9999998863859	-0.0373846031725407	
452	86.2610287822118	0.371673583984375	45.0999998861334	-0.0125632612034678	
453	86.3610287819594	0.371917724609375	45.199999885881	0.0195315480232239	
454	86.4610287817069	0.372406005859375	45.2999998856285	0.000610360875725746	
455	86.5610287814544	0.37384033203125	45.399999885376	0.0214134939014912	
456	86.6610287812019	0.3765869140625	45.4999998851235	0.035248339176178	
457	86.7610287809495	0.37835693359375	45.5999998848711	0.00518806744366884	
458	86.861028780697	0.37811279296875	45.6999998846186	-0.0159711092710495	
459	86.9610287804445	0.375457763671875	45.7999998843661	-0.0399277731776237	
460	87.061028780192	0.375518798828125	45.8999998841136	0.0312809944152832	
461	87.1610287799396	0.375244140625	45.9999998838612	-0.0145977977663279	
462	87.2610287796871	0.37371826171875	46.0999998836087	-0.0245670247823	
463	87.3610287794346	0.3782958984375	46.1999998833562	0.100811272859573	
464	87.4610287791821	0.376678466796875	46.2999998831037	-0.0881462842226028	
465	87.5610287789297	0.37890625	46.3999998828513	0.0749726593494415	
466	87.6610287786772	0.38092041015625	46.4999998825988	0.00554411113262177	
467	87.7610287784247	0.37939453125	46.5999998823463	-0.0440477095544338	
468	87.8610287781722	0.37847900390625	46.6999998820938	0.00773123791441321	
469	87.9610287779198	0.37945556640625	46.7999998818414	0.0234988946467638	
470	88.0610287776673	0.37725830078125	46.8999998815889	-0.054729025810957	
471	88.1610287774148	0.378173828125	46.9999998813364	0.0456753373146057	
472	88.2610287771623	0.38232421875	47.0999998810839	0.0580860115587711	
473	88.3610287769098	0.382232666015625	47.1999998808315	-0.0470486506819725	
474	88.4610287766574	0.38043212890625	47.299999880579	-0.0181073732674122	
475	88.5610287764049	0.377899169921875	47.3999998803265	-0.0257368832826614	
476	88.6610287761524	0.37451171875	47.499999880074	-0.0385544635355473	
477	88.7610287758999	0.376678466796875	47.5999998798216	0.0708018615841866	
478	88.8610287756475	0.373016357421875	47.6999998795691	-0.103710487484932	
479	88.961028775395	0.37542724609375	47.7999998793166	0.0941481664776802	
480	89.0610287751425	0.374176025390625	47.8999998790641	-0.0632740780711174	
481	89.16102877489	0.377960205078125	47.9999998788116	0.0920118987560272	
482	89.2610287746376	0.379638671875	48.0999998785592	-0.0175478756427765	
483	89.3610287743851	0.378936767578125	48.1999998783067	-0.0198367293924093	
484	89.4610287741326	0.3741455078125	48.2999998780542	-0.0740571171045303	
485	89.5610287738801	0.373077392578125	48.3999998778017	0.0339767560362816	
486	89.6610287736277	0.374481201171875	48.4999998775493	0.0222273077815771	
487	89.7610287733752	0.3756103515625	48.5999998772968	0.000762951094657183	
488	89.8610287731227	0.37445068359375	48.6999998770443	-0.0297550931572914	
489	89.9610287728702	0.37811279296875	48.7999998767918	0.0844332575798035	
490	90.0610287726178	0.377044677734375	48.8999998765394	-0.066173292696476	
491	90.1610287723653	0.3753662109375	48.9999998762869	-0.00610360875725746	
492	90.2610287721128	0.372283935546875	49.0999998760344	-0.0404872708022594	
493	90.3610287718603	0.374542236328125	49.1999998757819	0.0717682689428329	
494	90.4610287716079	0.37481689453125	49.2999998755295	-0.0315861739218235	
495	90.5610287713554	0.37469482421875	49.399999875277	0.00208539958111942	
496	90.6610287711029	0.376007080078125	49.4999998750245	0.0263981074094772	
497	90.7610287708504	0.37579345703125	49.599999874772	-0.019633274525404	
498	90.861028770598	0.37506103515625	49.6999998745196	-0.00656137941405177	
499	90.9610287703455	0.37689208984375	49.7999998742671	0.0414028130471706	
500	91.061028770093	0.37469482421875	49.8999998740146	-0.0640878900885582	
501	91.1610287698405	0.376983642578125	49.9999998737621	0.0737010762095451	
502	91.2610287695881	0.3741455078125	50.0999998735097	-0.0860608816146851	
503	91.3610287693356	0.37689208984375	50.1999998732572	0.0910963639616966	
504	91.4610287690831	0.375396728515625	50.2999998730047	-0.068919911980629	
505	91.5610287688306	0.37774658203125	50.3999998727522	0.0696828663349152	
506	91.6610287685781	0.374114990234375	50.4999998724998	-0.098980188369751	
507	91.7610287683257	0.37384033203125	50.5999998722473	0.0451667048037052	
508	91.8610287680732	0.376922607421875	50.6999998719948	0.0476081483066082	
509	91.9610287678207	0.372406005859375	50.7999998717423	-0.119681596755981	
510	92.0610287675682	0.373626708984375	50.8999998714899	0.0853487923741341	
511	92.1610287673158	0.373931884765625	50.9999998712374	-0.023702347651124	
512	92.2610287670633	0.373504638671875	51.0999998709849	-0.00732433050870895	
513	92.3610287668108	0.37701416015625	51.1999998707324	0.070344090461731	
514	92.4610287665583	0.37567138671875	51.29999987048	-0.0669871047139168	
515	92.5610287663059	0.377960205078125	51.3999998702275	0.06932682543993	
516	92.6610287660534	0.3785400390625	51.499999869975	-0.0205488167703152	
517	92.7610287658009	0.378204345703125	51.5999998697225	-0.00528979441151023	
518	92.8610287655484	0.375213623046875	51.69999986947	-0.048981461673975	
519	92.961028765296	0.376861572265625	51.7999998692176	0.0639861673116684	
520	93.0610287650435	0.379302978515625	51.8999998689651	0.0155642023310065	
521	93.161028764791	0.382843017578125	51.9999998687126	0.0419114455580711	
522	93.2610287645385	0.377655029296875	52.0999998684601	-0.128277510404587	
523	93.3610287642861	0.38140869140625	52.1999998682077	0.141145959496498	
524	93.4610287640336	0.377410888671875	52.2999998679552	-0.134381115436554	
525	93.5610287637811	0.37908935546875	52.3999998677027	0.08992650359869	
526	93.6610287635286	0.374053955078125	52.4999998674502	-0.125225707888603	
527	93.7610287632762	0.37286376953125	52.5999998671978	0.042521808296442	
528	93.8610287630237	0.372711181640625	52.6999998669453	-0.0056967013515532	
529	93.9610287627712	0.371307373046875	52.7999998666928	-0.0279240105301142	
530	94.0610287625187	0.3695068359375	52.8999998664403	-0.0171409677714109	
531	94.1610287622663	0.36590576171875	52.9999998661879	-0.0496935471892357	
532	94.2610287620138	0.370147705078125	53.0999998659354	0.113781437277794	
533	94.3610287617613	0.370391845703125	53.1999998656829	-0.0570178776979446	
534	94.4610287615088	0.3720703125	53.2999998654304	0.0420640371739864	
535	94.5610287612564	0.37432861328125	53.399999865178	0.0226342156529427	
536	94.6610287610039	0.37567138671875	53.4999998649255	0.00386561895720661	
537	94.7610287607514	0.374114990234375	53.599999864673	-0.03667251765728	
538	94.8610287604989	0.376068115234375	53.6999998644205	0.0584420524537563	
539	94.9610287602464	0.37554931640625	53.7999998641681	-0.0374863296747208	
540	95.061028759994	0.3775634765625	53.8999998639156	0.0494900941848755	
541	95.1610287597415	0.378082275390625	53.9999998636631	-0.0157167930155993	
542	95.261028759489	0.37774658203125	54.0999998634106	-0.00549324788153172	
543	95.3610287592365	0.3751220703125	54.1999998631582	-0.0424709431827068	
544	95.4610287589841	0.3780517578125	54.2999998629057	0.0832125321030617	
545	95.5610287587316	0.377685546875	54.3999998626532	-0.0496426858007908	
546	95.6610287584791	0.38104248046875	54.4999998624007	0.0755830183625221	
547	95.7610287582266	0.38140869140625	54.5999998621483	-0.0336715765297413	
548	95.8610287579742	0.381927490234375	54.6999998618958	0.0164288803935051	
549	95.9610287577217	0.3848876953125	54.7999998616433	0.0494392327964306	
550	96.0610287574692	0.383087158203125	54.8999998613908	-0.0658172443509102	
551	96.1610287572167	0.382476806640625	54.9999998611383	0.019684137776494	
552	96.2610287569643	0.37908935546875	55.0999998608859	-0.0609852224588394	
553	96.3610287567118	0.376495361328125	55.1999998606334	-0.0100709544494748	
554	96.4610287564593	0.3787841796875	55.2999998603809	0.0609343610703945	
555	96.5610287562068	0.3726806640625	55.3999998601284	-0.147249564528465	
556	96.6610287559544	0.373382568359375	55.499999859876	0.0917067229747772	
557	96.7610287557019	0.37603759765625	55.5999998596235	0.0201419088989496	
558	96.8610287554494	0.3741455078125	55.699999859371	-0.0633249431848526	
559	96.9610287551969	0.375030517578125	55.7999998591185	0.0471503771841526	
560	97.0610287549445	0.37432861328125	55.8999998588661	-0.029500775039196	
561	97.161028754692	0.375640869140625	55.9999998586136	0.0351974777877331	
562	97.2610287544395	0.374908447265625	56.0999998583611	-0.031077541410923	
563	97.361028754187	0.375823974609375	56.1999998581086	0.0297042299062014	
564	97.4610287539346	0.37738037109375	56.2999998578562	0.0154116125777364	
565	97.5610287536821	0.378631591796875	56.3999998576037	0.0078329648822546	
566	97.6610287534296	0.381927490234375	56.4999998573512	0.0510159954428673	
567	97.7610287531771	0.381011962890625	56.5999998570987	-0.0510668605566025	
568	97.8610287529247	0.377349853515625	56.6999998568463	-0.0454718843102455	
569	97.9610287526722	0.378662109375	56.7999998565938	0.063731849193573	
570	98.0610287524197	0.37689208984375	56.8999998563413	-0.0599679574370384	
571	98.1610287521672	0.376953125	56.9999998560888	0.026143791154027	
572	98.2610287519148	0.37689208984375	57.0999998558364	-0.00773123791441321	
573	98.3610287516623	0.373443603515625	57.1999998555839	-0.0623076744377613	
574	98.4610287514098	0.376220703125	57.2999998553314	0.090943768620491	
575	98.5610287511573	0.37567138671875	57.3999998550789	-0.0539660751819611	
576	98.6610287509048	0.37255859375	57.4999998548265	-0.0414028130471706	
577	98.7610287506524	0.374969482421875	57.599999854574	0.0786856859922409	
578	98.8610287503999	0.375640869140625	57.6999998543215	-0.026194654405117	
579	98.9610287501474	0.376678466796875	57.799999854069	0.0192263685166836	
580	99.0610287498949	0.37872314453125	57.8999998538166	0.0276188291609287	
581	99.1610287496425	0.376922607421875	57.9999998535641	-0.0534065775573254	
582	99.26102874939	0.3814697265625	58.0999998533116	0.111187405884266	
583	99.3610287491375	0.380462646484375	58.1999998530591	-0.0775158330798149	
584	99.461028748885	0.376434326171875	58.2999998528066	-0.0469469241797924	
585	99.5610287486326	0.374755859375	58.3999998525542	0.0128684416413307	
586	99.6610287483801	0.376861572265625	58.4999998523017	0.0447597987949848	
587	99.7610287481276	0.37554931640625	58.5999998520492	-0.0542203895747662	
588	99.8610287478751	0.374267578125	58.6999998517967	-0.00116985838394612	
589	99.9610287476227	0.3770751953125	58.7999998515443	0.0620533563196659	
590	100.06102874737	0.37518310546875	58.8999998512918	-0.0717174038290977	
591	100.161028747118	0.373016357421875	58.9999998510393	-0.00829073507338762	
592	100.261028746865	0.373687744140625	59.0999998507868	0.0312809944152832	
593	100.361028746613	0.37744140625	59.1999998505344	0.0537626221776009	
594	100.46102874636	0.3782958984375	59.2999998502819	-0.0258894730359316	
595	100.561028746108	0.378448486328125	59.3999998500294	0.00534065766260028	
596	100.661028745855	0.378692626953125	59.4999998497769	0.00554411113262177	
597	100.761028745603	0.380645751953125	59.5999998495245	0.0334681198000908	
598	100.86102874535	0.37957763671875	59.699999849272	-0.0415554046630859	
599	100.961028745098	0.375335693359375	59.7999998490195	-0.0587980970740318	
600	101.061028744845	0.377105712890625	59.899999848767	0.0783805102109909	
