Index	Potential applied (V)	Time (s)	WE(1).Current (A)	WE(1).Potential (V)
1	0.00244140625	283.303070284729	-0.000115509033203125	0.00260314941406251
2	0.0048828125	283.327470284667	-0.000113037109375	0.005047607421875
3	0.00732421875	283.351870284605	-0.000115753173828125	0.0074920654296875
4	0.009765625	283.376270284544	-0.000112945556640625	0.0099151611328125
5	0.01220703125	283.400670284482	-0.00011456298828125	0.0123931884765625
6	0.0146484375	283.42507028442	-0.0001131591796875	0.0148162841796875
7	0.01708984375	283.449470284359	-0.00011376953125	0.0172607421875
8	0.01953125	283.473870284297	-0.000114227294921875	0.01968994140625
9	0.02197265625	283.498270284236	-0.00011279296875	0.0221343994140625
10	0.0244140625	283.522670284174	-0.0001143798828125	0.0245849609375
11	0.02685546875	283.547070284112	-0.000111846923828125	0.027020263671875
12	0.029296875	283.571470284051	-0.0001146240234375	0.029443359375
13	0.03173828125	283.595870283989	-0.0001119384765625	0.03187255859375
14	0.0341796875	283.620270283928	-0.000113555908203125	0.03433837890625
15	0.03662109375	283.644670283866	-0.000112335205078125	0.03677978515625
16	0.0390625	283.669070283804	-0.00011297607421875	0.0392303466796875
17	0.04150390625	283.693470283743	-0.0001136474609375	0.0416595458984375
18	0.0439453125	283.717870283681	-0.00011224365234375	0.0441192626953125
19	0.04638671875	283.74227028362	-0.000114044189453125	0.04654541015625
20	0.048828125	283.766670283558	-0.000111602783203125	0.0489898681640625
21	0.05126953125	283.791070283496	-0.000114471435546875	0.051361083984375
22	0.0537109375	283.815470283435	-0.00011199951171875	0.0538330078125
23	0.05615234375	283.839870283373	-0.000113616943359375	0.0562744140625
24	0.05859375	283.864270283312	-0.000112579345703125	0.0587158203125
25	0.06103515625	283.88867028325	-0.0001131591796875	0.061126708984375
26	0.0634765625	283.913070283188	-0.00011407470703125	0.063507080078125
27	0.06591796875	283.937470283127	-0.000112579345703125	0.0660400390625
28	0.068359375	283.961870283065	-0.00011456298828125	0.0684814453125
29	0.07080078125	283.986270283004	-0.00011199951171875	0.070892333984375
30	0.0732421875	284.010670282942	-0.000114898681640625	0.07330322265625
31	0.07568359375	284.03507028288	-0.00011236572265625	0.07574462890625
32	0.078125	284.059470282819	-0.0001138916015625	0.0782470703125
33	0.08056640625	284.083870282757	-0.000112823486328125	0.08062744140625
34	0.0830078125	284.108270282696	-0.000113189697265625	0.08306884765625
35	0.08544921875	284.132670282634	-0.000114044189453125	0.08551025390625
36	0.087890625	284.157070282572	-0.00011224365234375	0.08795166015625
37	0.09033203125	284.181470282511	-0.000114105224609375	0.090423583984375
38	0.0927734375	284.205870282449	-0.000111358642578125	0.092803955078125
39	0.09521484375	284.230270282388	-0.00011407470703125	0.095306396484375
40	0.09765625	284.254670282326	-0.00011151123046875	0.097686767578125
41	0.10009765625	284.279070282264	-0.000112762451171875	0.100128173828125
42	0.1025390625	284.303470282203	-0.000111663818359375	0.102630615234375
43	0.10498046875	284.327870282141	-0.00011175537109375	0.105072021484375
44	0.107421875	284.35227028208	-0.00011260986328125	0.107513427734375
45	0.10986328125	284.376670282018	-0.00011065673828125	0.109954833984375
46	0.1123046875	284.401070281956	-0.000112457275390625	0.112396240234375
47	0.11474609375	284.425470281895	-0.000109619140625	0.114837646484375
48	0.1171875	284.449870281833	-0.000112213134765625	0.11724853515625
49	0.11962890625	284.474270281772	-0.000109832763671875	0.119720458984375
50	0.1220703125	284.49867028171	-0.000110992431640625	0.122161865234375
51	0.12451171875	284.523070281648	-0.000110107421875	0.1246337890625
52	0.126953125	284.547470281587	-0.000110198974609375	0.127044677734375
53	0.12939453125	284.571870281525	-0.00011126708984375	0.12945556640625
54	0.1318359375	284.596270281463	-0.000109405517578125	0.13189697265625
55	0.13427734375	284.620670281402	-0.00011138916015625	0.134307861328125
56	0.13671875	284.64507028134	-0.000108734130859375	0.13677978515625
57	0.13916015625	284.669470281279	-0.000111480712890625	0.139251708984375
58	0.1416015625	284.693870281217	-0.000109222412109375	0.141632080078125
59	0.14404296875	284.718270281155	-0.000110504150390625	0.144134521484375
60	0.146484375	284.742670281094	-0.00010980224609375	0.146575927734375
61	0.14892578125	284.767070281032	-0.00010986328125	0.14898681640625
62	0.1513671875	284.791470280971	-0.000111053466796875	0.15142822265625
63	0.15380859375	284.815870280909	-0.000109100341796875	0.15386962890625
64	0.15625	284.840270280847	-0.000111114501953125	0.15631103515625
65	0.15869140625	284.864670280786	-0.000108428955078125	0.15875244140625
66	0.1611328125	284.889070280724	-0.0001112060546875	0.1612548828125
67	0.16357421875	284.913470280663	-0.000108978271484375	0.16363525390625
68	0.166015625	284.937870280601	-0.000110107421875	0.16607666015625
69	0.16845703125	284.962270280539	-0.000109466552734375	0.16851806640625
70	0.1708984375	284.986670280478	-0.000109344482421875	0.17095947265625
71	0.17333984375	285.011070280416	-0.000110443115234375	0.17340087890625
72	0.17578125	285.035470280355	-0.0001083984375	0.17584228515625
73	0.17822265625	285.059870280293	-0.000110260009765625	0.1783447265625
74	0.1806640625	285.084270280231	-0.00010736083984375	0.180694580078125
75	0.18310546875	285.10867028017	-0.00010986328125	0.183197021484375
76	0.185546875	285.133070280108	-0.000107635498046875	0.18560791015625
77	0.18798828125	285.157470280047	-0.0001085205078125	0.18804931640625
78	0.1904296875	285.181870279985	-0.00010784912109375	0.1904296875
79	0.19287109375	285.206270279923	-0.00010748291015625	0.193023681640625
80	0.1953125	285.230670279862	-0.000108612060546875	0.195281982421875
81	0.19775390625	285.2550702798	-0.000106353759765625	0.19781494140625
82	0.2001953125	285.279470279739	-0.0001083984375	0.200225830078125
83	0.20263671875	285.303870279677	-0.0001055908203125	0.202728271484375
84	0.205078125	285.328270279615	-0.000108184814453125	0.20513916015625
85	0.20751953125	285.352670279554	-0.000106170654296875	0.20758056640625
86	0.2099609375	285.377070279492	-0.00010693359375	0.209991455078125
87	0.21240234375	285.401470279431	-0.000106536865234375	0.21246337890625
88	0.21484375	285.425870279369	-0.000106201171875	0.21490478515625
89	0.21728515625	285.450270279307	-0.00010772705078125	0.217315673828125
90	0.2197265625	285.474670279246	-0.00010546875	0.219757080078125
91	0.22216796875	285.499070279184	-0.000107666015625	0.222198486328125
92	0.224609375	285.523470279123	-0.00010491943359375	0.22467041015625
93	0.22705078125	285.547870279061	-0.000107513427734375	0.22705078125
94	0.2294921875	285.572270278999	-0.000105621337890625	0.22955322265625
95	0.23193359375	285.596670278938	-0.0001064453125	0.231964111328125
96	0.234375	285.621070278876	-0.000106201171875	0.234405517578125
97	0.23681640625	285.645470278815	-0.000105743408203125	0.23681640625
98	0.2392578125	285.669870278753	-0.00010736083984375	0.23931884765625
99	0.24169921875	285.694270278691	-0.000105010986328125	0.24176025390625
100	0.244140625	285.71867027863	-0.000107147216796875	0.24420166015625
101	0.24658203125	285.743070278568	-0.00010443115234375	0.246612548828125
102	0.2490234375	285.767470278506	-0.000106842041015625	0.249053955078125
103	0.25146484375	285.791870278445	-0.0001051025390625	0.25152587890625
104	0.25390625	285.816270278383	-0.000105712890625	0.25390625
105	0.25634765625	285.840670278322	-0.000105316162109375	0.25640869140625
106	0.2587890625	285.86507027826	-0.000104705810546875	0.25885009765625
107	0.26123046875	285.889470278198	-0.000106170654296875	0.26129150390625
108	0.263671875	285.913870278137	-0.00010382080078125	0.26373291015625
109	0.26611328125	285.938270278075	-0.0001058349609375	0.26611328125
110	0.2685546875	285.962670278014	-0.000103057861328125	0.2685546875
111	0.27099609375	285.987070277952	-0.0001053466796875	0.271026611328125
112	0.2734375	286.01147027789	-0.00010369873046875	0.273468017578125
113	0.27587890625	286.035870277829	-0.000104034423828125	0.275909423828125
114	0.2783203125	286.060270277767	-0.00010382080078125	0.27838134765625
115	0.28076171875	286.084670277706	-0.00010296630859375	0.28082275390625
116	0.283203125	286.109070277644	-0.00010467529296875	0.28326416015625
117	0.28564453125	286.133470277582	-0.000102142333984375	0.285614013671875
118	0.2880859375	286.157870277521	-0.00010430908203125	0.288116455078125
119	0.29052734375	286.182270277459	-0.000101318359375	0.290496826171875
120	0.29296875	286.206670277398	-0.000103668212890625	0.292938232421875
121	0.29541015625	286.231070277336	-0.000102264404296875	0.295440673828125
122	0.2978515625	286.255470277274	-0.000102630615234375	0.2978515625
123	0.30029296875	286.279870277213	-0.000102569580078125	0.30035400390625
124	0.302734375	286.304270277151	-0.000101715087890625	0.302734375
125	0.30517578125	286.32867027709	-0.000103546142578125	0.305206298828125
126	0.3076171875	286.353070277028	-0.000101226806640625	0.3076171875
127	0.31005859375	286.377470276966	-0.000103271484375	0.31005859375
128	0.3125	286.401870276905	-0.000100555419921875	0.312530517578125
129	0.31494140625	286.426270276843	-0.000102783203125	0.31500244140625
130	0.3173828125	286.450670276782	-0.00010137939453125	0.317474365234375
131	0.31982421875	286.47507027672	-0.0001016845703125	0.31982421875
132	0.322265625	286.499470276658	-0.00010174560546875	0.322296142578125
133	0.32470703125	286.523870276597	-0.00010076904296875	0.32470703125
134	0.3271484375	286.548270276535	-0.0001025390625	0.32720947265625
135	0.32958984375	286.572670276474	-9.991455078125E-05	0.329559326171875
136	0.33203125	286.597070276412	-0.000102020263671875	0.33203125
137	0.33447265625	286.62147027635	-9.912109375E-05	0.33453369140625
138	0.3369140625	286.645870276289	-0.000101226806640625	0.336944580078125
139	0.33935546875	286.670270276227	-9.9822998046875E-05	0.339324951171875
140	0.341796875	286.694670276166	-9.9945068359375E-05	0.341827392578125
141	0.34423828125	286.719070276104	-0.000100067138671875	0.34429931640625
142	0.3466796875	286.743470276042	-9.881591796875E-05	0.3466796875
143	0.34912109375	286.767870275981	-0.000100555419921875	0.349151611328125
144	0.3515625	286.792270275919	-9.7869873046875E-05	0.3515625
145	0.35400390625	286.816670275858	-9.9884033203125E-05	0.35400390625
146	0.3564453125	286.841070275796	-9.7076416015625E-05	0.356536865234375
147	0.35888671875	286.865470275734	-9.912109375E-05	0.35894775390625
148	0.361328125	286.889870275673	-9.783935546875E-05	0.361328125
149	0.36376953125	286.914270275611	-9.7625732421875E-05	0.363922119140625
150	0.3662109375	286.938670275549	-9.77783203125E-05	0.36639404296875
151	0.36865234375	286.963070275488	-9.6466064453125E-05	0.36871337890625
152	0.37109375	286.987470275426	-9.8480224609375E-05	0.371185302734375
153	0.37353515625	287.011870275365	-9.58251953125E-05	0.373626708984375
154	0.3759765625	287.036270275303	-9.783935546875E-05	0.3760986328125
155	0.37841796875	287.060670275241	-9.5489501953125E-05	0.3785400390625
156	0.380859375	287.08507027518	-9.7381591796875E-05	0.3809814453125
157	0.38330078125	287.109470275118	-9.6435546875E-05	0.38336181640625
158	0.3857421875	287.133870275057	-9.637451171875E-05	0.385833740234375
159	0.38818359375	287.158270274995	-9.6771240234375E-05	0.3883056640625
160	0.390625	287.182670274933	-9.539794921875E-05	0.3907470703125
161	0.39306640625	287.207070274872	-9.7412109375E-05	0.39312744140625
162	0.3955078125	287.23147027481	-9.4573974609375E-05	0.3956298828125
163	0.39794921875	287.255870274749	-9.6771240234375E-05	0.398040771484375
164	0.400390625	287.280270274687	-9.4085693359375E-05	0.40045166015625
165	0.40283203125	287.304670274625	-9.6099853515625E-05	0.40289306640625
166	0.4052734375	287.329070274564	-9.50927734375E-05	0.4053955078125
167	0.40771484375	287.353470274502	-9.48486328125E-05	0.407806396484375
168	0.41015625	287.377870274441	-9.5123291015625E-05	0.410308837890625
169	0.41259765625	287.402270274379	-9.3292236328125E-05	0.4127197265625
170	0.4150390625	287.426670274317	-9.5245361328125E-05	0.415130615234375
171	0.41748046875	287.451070274256	-9.234619140625E-05	0.417572021484375
172	0.419921875	287.475470274194	-9.4207763671875E-05	0.420013427734375
173	0.42236328125	287.499870274133	-9.161376953125E-05	0.42242431640625
174	0.4248046875	287.524270274071	-9.3170166015625E-05	0.42486572265625
175	0.42724609375	287.548670274009	-9.2132568359375E-05	0.4273681640625
176	0.4296875	287.573070273948	-9.136962890625E-05	0.429718017578125
177	0.43212890625	287.597470273886	-9.16748046875E-05	0.43218994140625
178	0.4345703125	287.621870273825	-8.978271484375E-05	0.43463134765625
179	0.43701171875	287.646270273763	-9.1888427734375E-05	0.437103271484375
180	0.439453125	287.670670273701	-8.8623046875E-05	0.439544677734375
181	0.44189453125	287.69507027364	-9.0423583984375E-05	0.441986083984375
182	0.4443359375	287.719470273578	-8.7677001953125E-05	0.4444580078125
183	0.44677734375	287.743870273517	-8.892822265625E-05	0.446868896484375
184	0.44921875	287.768270273455	-8.819580078125E-05	0.449310302734375
185	0.45166015625	287.792670273393	-8.7646484375E-05	0.45172119140625
186	0.4541015625	287.817070273332	-8.7799072265625E-05	0.454193115234375
187	0.45654296875	287.84147027327	-8.6029052734375E-05	0.45660400390625
188	0.458984375	287.865870273209	-8.807373046875E-05	0.45904541015625
189	0.46142578125	287.890270273147	-8.4930419921875E-05	0.46142578125
190	0.4638671875	287.914670273085	-8.69140625E-05	0.4638671875
191	0.46630859375	287.939070273024	-8.4075927734375E-05	0.46636962890625
192	0.46875	287.963470272962	-8.563232421875E-05	0.46881103515625
193	0.47119140625	287.987870272901	-8.477783203125E-05	0.471282958984375
194	0.4736328125	288.012270272839	-8.3984375E-05	0.4736328125
195	0.47607421875	288.036670272777	-8.45947265625E-05	0.476104736328125
196	0.478515625	288.061070272716	-8.2244873046875E-05	0.478546142578125
197	0.48095703125	288.085470272654	-8.4442138671875E-05	0.48101806640625
198	0.4833984375	288.109870272593	-8.1024169921875E-05	0.4833984375
199	0.48583984375	288.134270272531	-8.270263671875E-05	0.48583984375
200	0.48828125	288.158670272469	-8.026123046875E-05	0.488311767578125
201	0.49072265625	288.183070272408	-8.135986328125E-05	0.49078369140625
202	0.4931640625	288.207470272346	-8.026123046875E-05	0.493194580078125
203	0.49560546875	288.231870272284	-7.904052734375E-05	0.49560546875
204	0.498046875	288.256270272223	-7.94677734375E-05	0.49810791015625
205	0.50048828125	288.280670272161	-7.6873779296875E-05	0.500457763671875
206	0.5029296875	288.3050702721	-7.8765869140625E-05	0.5029296875
207	0.50537109375	288.329470272038	-7.5347900390625E-05	0.505462646484375
208	0.5078125	288.353870271976	-7.6507568359375E-05	0.5078125
209	0.51025390625	288.378270271915	-7.3822021484375E-05	0.510284423828125
210	0.5126953125	288.402670271853	-7.4249267578125E-05	0.512725830078125
211	0.51513671875	288.427070271792	-7.330322265625E-05	0.515167236328125
212	0.517578125	288.45147027173	-7.1685791015625E-05	0.517578125
213	0.52001953125	288.475870271668	-7.196044921875E-05	0.52001953125
214	0.5224609375	288.500270271607	-6.915283203125E-05	0.5224609375
215	0.52490234375	288.524670271545	-7.0770263671875E-05	0.524871826171875
216	0.52734375	288.549070271484	-6.70166015625E-05	0.52734375
217	0.52978515625	288.573470271422	-6.79931640625E-05	0.529815673828125
218	0.5322265625	288.59787027136	-6.5521240234375E-05	0.53216552734375
219	0.53466796875	288.622270271299	-6.6131591796875E-05	0.534637451171875
220	0.537109375	288.646670271237	-6.5032958984375E-05	0.537109375
221	0.53955078125	288.671070271176	-6.3323974609375E-05	0.539520263671875
222	0.5419921875	288.695470271114	-6.402587890625E-05	0.541961669921875
223	0.54443359375	288.719870271052	-6.085205078125E-05	0.54443359375
224	0.546875	288.744270270991	-6.268310546875E-05	0.546844482421875
225	0.54931640625	288.768670270929	-5.8868408203125E-05	0.549285888671875
226	0.5517578125	288.793070270868	-5.9661865234375E-05	0.551727294921875
227	0.55419921875	288.817470270806	-5.706787109375E-05	0.55419921875
228	0.556640625	288.841870270744	-5.7220458984375E-05	0.556640625
229	0.55908203125	288.866270270683	-5.615234375E-05	0.559051513671875
230	0.5615234375	288.890670270621	-5.4107666015625E-05	0.561492919921875
231	0.56396484375	288.91507027056	-5.4351806640625E-05	0.563934326171875
232	0.56640625	288.939470270498	-5.11474609375E-05	0.566436767578125
233	0.56884765625	288.963870270436	-5.2337646484375E-05	0.56878662109375
234	0.5712890625	288.988270270375	-4.8248291015625E-05	0.571258544921875
235	0.57373046875	289.012670270313	-4.8828125E-05	0.573638916015625
236	0.576171875	289.037070270252	-4.583740234375E-05	0.57611083984375
237	0.57861328125	289.06147027019	-4.54833984375E-05	0.57861328125
238	0.5810546875	289.085870270128	-4.407958984375E-05	0.5810546875
239	0.58349609375	289.110270270067	-4.16351318359375E-05	0.58349609375
240	0.5859375	289.134670270005	-4.16778564453125E-05	0.585968017578125
241	0.58837890625	289.159070269944	-3.81317138671875E-05	0.58837890625
242	0.5908203125	289.183470269882	-3.88092041015625E-05	0.5908203125
243	0.59326171875	289.20787026982	-3.448486328125E-05	0.59326171875
244	0.595703125	289.232270269759	-3.44085693359375E-05	0.595703125
245	0.59814453125	289.256670269697	-3.0731201171875E-05	0.59814453125
246	0.6005859375	289.281070269636	-2.98431396484375E-05	0.60064697265625
247	0.60302734375	289.305470269574	-2.86651611328125E-05	0.60302734375
248	0.60546875	289.329870269512	-2.56011962890625E-05	0.60540771484375
249	0.60791015625	289.354270269451	-2.54119873046875E-05	0.60791015625
250	0.6103515625	289.378670269389	-2.09808349609375E-05	0.61029052734375
251	0.61279296875	289.403070269327	-2.176513671875E-05	0.612762451171875
252	0.615234375	289.427470269266	-1.70135498046875E-05	0.61517333984375
253	0.61767578125	289.451870269204	-1.619873046875E-05	0.617645263671875
254	0.6201171875	289.476270269143	-1.28509521484375E-05	0.62005615234375
255	0.62255859375	289.500670269081	-1.13433837890625E-05	0.62249755859375
256	0.625	289.525070269019	-9.58251953125E-06	0.624969482421875
257	0.62744140625	289.549470268958	-6.2713623046875E-06	0.62738037109375
258	0.6298828125	289.573870268896	-5.4534912109375E-06	0.62982177734375
259	0.63232421875	289.598270268835	-8.26416015625001E-07	0.632232666015625
260	0.634765625	289.622670268773	-9.130859375E-07	0.63470458984375
261	0.63720703125	289.647070268711	4.28466796875E-06	0.63671875
262	0.6396484375	289.67147026865	5.0201416015625E-06	0.63946533203125
263	0.64208984375	289.695870268588	8.99658203125E-06	0.64190673828125
264	0.64453125	289.720270268527	1.0980224609375E-05	0.64422607421875
265	0.64697265625	289.744670268465	1.33941650390625E-05	0.64666748046875
266	0.6494140625	289.769070268403	1.73126220703125E-05	0.64892578125
267	0.65185546875	289.793470268342	1.88232421875E-05	0.651397705078125
268	0.654296875	289.81787026828	2.42828369140625E-05	0.653717041015625
269	0.65673828125	289.842270268219	2.4761962890625E-05	0.656005859375
270	0.6591796875	289.866670268157	3.0621337890625E-05	0.658416748046875
271	0.66162109375	289.891070268095	3.23394775390625E-05	0.661468505859375
272	0.6640625	289.915470268034	3.7103271484375E-05	0.663909912109375
273	0.66650390625	289.939870267972	3.9935302734375E-05	0.666290283203125
274	0.6689453125	289.964270267911	4.3121337890625E-05	0.66876220703125
275	0.67138671875	289.988670267849	4.791259765625E-05	0.671173095703125
276	0.673828125	290.013070267787	5.023193359375E-05	0.673675537109375
277	0.67626953125	290.037470267726	5.65185546875E-05	0.676055908203125
278	0.6787109375	290.061870267664	5.82275390625E-05	0.678436279296875
279	0.68115234375	290.086270267603	6.512451171875E-05	0.680908203125
280	0.68359375	290.110670267541	6.805419921875E-05	0.68341064453125
281	0.68603515625	290.135070267479	7.36083984375E-05	0.685760498046875
282	0.6884765625	290.159470267418	7.781982421875E-05	0.688262939453125
283	0.69091796875	290.183870267356	8.1695556640625E-05	0.690643310546875
284	0.693359375	290.208270267295	8.7493896484375E-05	0.693115234375
285	0.69580078125	290.232670267233	9.1278076171875E-05	0.695465087890625
286	0.6982421875	290.257070267171	9.87548828125E-05	0.69793701171875
287	0.70068359375	290.28147026711	0.000101715087890625	0.700347900390625
288	0.703125	290.305870267048	0.000109527587890625	0.7027587890625
289	0.70556640625	290.330270266987	0.000113555908203125	0.705169677734375
290	0.7080078125	290.354670266925	0.000120147705078125	0.7076416015625
291	0.71044921875	290.379070266863	0.000125823974609375	0.7100830078125
292	0.712890625	290.403470266802	0.000131500244140625	0.7125244140625
293	0.71533203125	290.42787026674	0.00013909912109375	0.714874267578125
294	0.7177734375	290.452270266679	0.000143829345703125	0.717315673828125
295	0.72021484375	290.476670266617	0.000152557373046875	0.7197265625
296	0.72265625	290.501070266555	0.000157257080078125	0.722137451171875
297	0.72509765625	290.525470266494	0.00016656494140625	0.72454833984375
298	0.7275390625	290.549870266432	0.000172821044921875	0.72698974609375
299	0.72998046875	290.57427026637	0.0001810302734375	0.729400634765625
300	0.732421875	290.598670266309	0.000188568115234375	0.73187255859375
301	0.73486328125	290.623070266247	0.000196319580078125	0.7342529296875
302	0.7373046875	290.647470266186	0.00020562744140625	0.736602783203125
303	0.73974609375	290.671870266124	0.000212890625	0.739044189453125
304	0.7421875	290.696270266062	0.000223785400390625	0.74151611328125
305	0.74462890625	290.720670266001	0.0002310791015625	0.743927001953125
306	0.7470703125	290.745070265939	0.0002420654296875	0.74627685546875
307	0.74951171875	290.769470265878	0.0002506103515625	0.74871826171875
308	0.751953125	290.793870265816	0.000261383056640625	0.7513427734375
309	0.75439453125	290.818270265754	0.000271392822265625	0.7537841796875
310	0.7568359375	290.842670265693	0.00028192138671875	0.7562255859375
311	0.75927734375	290.867070265631	0.000293426513671875	0.75927734375
312	0.76171875	290.89147026557	0.000303619384765625	0.76080322265625
313	0.76416015625	290.915870265508	0.0003167724609375	0.76385498046875
314	0.7666015625	290.940270265446	0.000327423095703125	0.76568603515625
315	0.76904296875	290.964670265385	0.000341033935546875	0.7684326171875
316	0.771484375	290.989070265323	0.000352813720703125	0.77117919921875
317	0.77392578125	291.013470265262	0.000366424560546875	0.7733154296875
318	0.7763671875	291.0378702652	0.000379730224609375	0.7757568359375
319	0.77880859375	291.062270265138	0.00039312744140625	0.7781982421875
320	0.78125	291.086670265077	0.000408447265625	0.780029296875
321	0.78369140625	291.111070265015	0.00042218017578125	0.7830810546875
322	0.7861328125	291.135470264954	0.000438018798828125	0.78521728515625
323	0.78857421875	291.159870264892	0.0004520263671875	0.78765869140625
324	0.791015625	291.18427026483	0.000469146728515625	0.7904052734375
325	0.79345703125	291.208670264769	0.0004847412109375	0.792236328125
326	0.7958984375	291.233070264707	0.00050262451171875	0.794677734375
327	0.79833984375	291.257470264646	0.00051971435546875	0.79742431640625
328	0.80078125	291.281870264584	0.0005377197265625	0.799560546875
329	0.80322265625	291.306270264522	0.00055633544921875	0.8026123046875
330	0.8056640625	291.330670264461	0.000574951171875	0.804443359375
331	0.80810546875	291.355070264399	0.00059539794921875	0.80718994140625
332	0.810546875	291.379470264338	0.0006146240234375	0.8099365234375
333	0.81298828125	291.403870264276	0.00063568115234375	0.81207275390625
334	0.8154296875	291.428270264214	0.0006561279296875	0.81451416015625
335	0.81787109375	291.452670264153	0.00067840576171875	0.81695556640625
336	0.8203125	291.477070264091	0.0007000732421875	0.819091796875
337	0.82275390625	291.50147026403	0.00072296142578125	0.8221435546875
338	0.8251953125	291.525870263968	0.000745849609375	0.82427978515625
339	0.82763671875	291.550270263906	0.00077056884765625	0.8270263671875
340	0.830078125	291.574670263845	0.000794677734375	0.8294677734375
341	0.83251953125	291.599070263783	0.00082000732421875	0.83160400390625
342	0.8349609375	291.623470263722	0.000845947265625	0.8343505859375
343	0.83740234375	291.64787026366	0.0008721923828125	0.83648681640625
344	0.83984375	291.672270263598	0.00089996337890625	0.838623046875
345	0.84228515625	291.696670263537	0.0009271240234375	0.841064453125
346	0.8447265625	291.721070263475	0.00095672607421875	0.84381103515625
347	0.84716796875	291.745470263413	0.00098480224609375	0.84686279296875
348	0.849609375	291.769870263352	0.00101531982421875	0.84930419921875
349	0.85205078125	291.79427026329	0.001044921875	0.8514404296875
350	0.8544921875	291.818670263229	0.00107696533203125	0.8538818359375
351	0.85693359375	291.843070263167	0.0011083984375	0.8563232421875
352	0.859375	291.867470263105	0.00114105224609375	0.85845947265625
353	0.86181640625	291.891870263044	0.00117523193359375	0.86090087890625
354	0.8642578125	291.916270262982	0.00120849609375	0.86334228515625
355	0.86669921875	291.940670262921	0.00124420166015625	0.86578369140625
356	0.869140625	291.965070262859	0.001278076171875	0.867919921875
357	0.87158203125	291.989470262797	0.0013153076171875	0.870361328125
358	0.8740234375	292.013870262736	0.00135101318359375	0.872802734375
359	0.87646484375	292.038270262674	0.00139007568359375	0.87554931640625
360	0.87890625	292.062670262613	0.00142791748046875	0.877685546875
361	0.88134765625	292.087070262551	0.00146728515625	0.88043212890625
362	0.8837890625	292.111470262489	0.00150787353515625	0.882568359375
363	0.88623046875	292.135870262428	0.0015472412109375	0.8856201171875
364	0.888671875	292.160270262366	0.001590576171875	0.8880615234375
365	0.89111328125	292.184670262305	0.00163055419921875	0.8905029296875
366	0.8935546875	292.209070262243	0.0016754150390625	0.8929443359375
367	0.89599609375	292.233470262181	0.00171722412109375	0.894775390625
368	0.8984375	292.25787026212	0.001763916015625	0.89752197265625
369	0.90087890625	292.282270262058	0.0018084716796875	0.899658203125
370	0.9033203125	292.306670261997	0.0018548583984375	0.90240478515625
371	0.90576171875	292.331070261935	0.001903076171875	0.904541015625
372	0.908203125	292.355470261873	0.00194915771484375	0.906982421875
373	0.91064453125	292.379870261812	0.0020001220703125	0.91033935546875
374	0.9130859375	292.40427026175	0.0020465087890625	0.91217041015625
375	0.91552734375	292.428670261689	0.00209930419921875	0.9149169921875
376	0.91796875	292.453070261627	0.00214813232421875	0.916748046875
377	0.92041015625	292.477470261565	0.00220184326171875	0.919189453125
378	0.9228515625	292.501870261504	0.00225341796875	0.9222412109375
379	0.92529296875	292.526270261442	0.0023065185546875	0.92437744140625
380	0.927734375	292.550670261381	0.0023614501953125	0.92681884765625
381	0.93017578125	292.575070261319	0.00241485595703125	0.92987060546875
382	0.9326171875	292.599470261257	0.00247314453125	0.9320068359375
383	0.93505859375	292.623870261196	0.00252593994140625	0.933837890625
384	0.9375	292.648270261134	0.002586669921875	0.936279296875
385	0.93994140625	292.672670261073	0.00264190673828125	0.9393310546875
386	0.9423828125	292.697070261011	0.00270355224609375	0.94146728515625
387	0.94482421875	292.721470260949	0.0027618408203125	0.943603515625
388	0.947265625	292.745870260888	0.00282196044921875	0.946044921875
389	0.94970703125	292.770270260826	0.00288421630859375	0.9490966796875
390	0.9521484375	292.794670260765	0.0029443359375	0.95123291015625
391	0.95458984375	292.819070260703	0.00300994873046875	0.95367431640625
392	0.95703125	292.843470260641	0.00306915283203125	0.9564208984375
393	0.95947265625	292.86787026058	0.00313629150390625	0.9588623046875
394	0.9619140625	292.892270260518	0.00319793701171875	0.96160888671875
395	0.96435546875	292.916670260456	0.0032659912109375	0.9637451171875
396	0.966796875	292.941070260395	0.00332977294921875	0.965576171875
397	0.96923828125	292.965470260333	0.0033953857421875	0.968017578125
398	0.9716796875	292.989870260272	0.003463134765625	0.97076416015625
399	0.97412109375	293.01427026021	0.00352813720703125	0.9735107421875
400	0.9765625	293.038670260148	0.00359771728515625	0.97625732421875
401	0.97900390625	293.063070260087	0.0036602783203125	0.9783935546875
402	0.9814453125	293.087470260025	0.00373046875	0.98052978515625
403	0.98388671875	293.111870259964	0.00379364013671875	0.9832763671875
404	0.986328125	293.136270259902	0.003861083984375	0.98541259765625
405	0.98876953125	293.16067025984	0.00392425537109375	0.987548828125
406	0.9912109375	293.185070259779	0.0039874267578125	0.989990234375
407	0.99365234375	293.209470259717	0.00405059814453125	0.992431640625
408	0.99609375	293.233870259656	0.0041094970703125	0.99517822265625
409	0.99853515625	293.258270259594	0.00417083740234375	0.99761962890625
410	1.0009765625	293.282670259532	0.0042242431640625	1.00067138671875
411	1.00341796875	293.307070259471	0.0042816162109375	1.002197265625
412	1.005859375	293.331470259409	0.00433197021484375	1.004638671875
413	1.00830078125	293.355870259348	0.00438446044921875	1.00738525390625
414	1.0107421875	293.380270259286	0.00443206787109375	1.00982666015625
415	1.01318359375	293.404670259224	0.00447845458984375	1.01226806640625
416	1.015625	293.429070259163	0.00452392578125	1.01470947265625
417	1.01806640625	293.453470259101	0.0045654296875	1.01715087890625
418	1.0205078125	293.47787025904	0.00460784912109375	1.0198974609375
419	1.02294921875	293.502270258978	0.00464508056640625	1.02203369140625
420	1.025390625	293.526670258916	0.00468414306640625	1.02447509765625
421	1.02783203125	293.551070258855	0.00471893310546875	1.0272216796875
422	1.0302734375	293.575470258793	0.00475494384765625	1.0296630859375
423	1.03271484375	293.599870258732	0.00478759765625	1.031494140625
424	1.03515625	293.62427025867	0.0048199462890625	1.033935546875
425	1.03759765625	293.648670258608	0.00485137939453125	1.0369873046875
426	1.0400390625	293.673070258547	0.0048809814453125	1.0394287109375
427	1.04248046875	293.697470258485	0.004910888671875	1.0418701171875
428	1.044921875	293.721870258424	0.00493743896484375	1.04339599609375
429	1.04736328125	293.746270258362	0.0049658203125	1.04644775390625
430	1.0498046875	293.7706702583	0.004991455078125	1.04888916015625
431	1.05224609375	293.795070258239	0.0050177001953125	1.051025390625
432	1.0546875	293.819470258177	0.0050421142578125	1.053466796875
433	1.05712890625	293.843870258116	0.0050665283203125	1.0565185546875
434	1.0595703125	293.868270258054	0.00509033203125	1.05865478515625
435	1.06201171875	293.892670257992	0.0051129150390625	1.06109619140625
436	1.064453125	293.917070257931	0.00513580322265625	1.06353759765625
437	1.06689453125	293.941470257869	0.0051568603515625	1.06597900390625
438	1.0693359375	293.965870257808	0.0051788330078125	1.068115234375
439	1.07177734375	293.990270257746	0.00519927978515625	1.0711669921875
440	1.07421875	294.014670257684	0.00522003173828125	1.0736083984375
441	1.07666015625	294.039070257623	0.0052398681640625	1.0760498046875
442	1.0791015625	294.063470257561	0.0052593994140625	1.077880859375
443	1.08154296875	294.0878702575	0.0052789306640625	1.080322265625
444	1.083984375	294.112270257438	0.0052972412109375	1.0833740234375
445	1.08642578125	294.136670257376	0.005316162109375	1.08551025390625
446	1.0888671875	294.161070257315	0.00533355712890625	1.087646484375
447	1.09130859375	294.185470257253	0.00535186767578125	1.0906982421875
448	1.09375	294.209870257191	0.00536895751953125	1.0931396484375
449	1.09619140625	294.23427025713	0.0053863525390625	1.09527587890625
450	1.0986328125	294.258670257068	0.00540313720703125	1.097412109375
451	1.10107421875	294.283070257007	0.00541961669921875	1.09954833984375
452	1.103515625	294.307470256945	0.00543609619140625	1.10260009765625
453	1.10595703125	294.331870256883	0.00545196533203125	1.1053466796875
454	1.1083984375	294.356270256822	0.0054681396484375	1.107177734375
455	1.11083984375	294.38067025676	0.00548309326171875	1.10992431640625
456	1.11328125	294.405070256699	0.0054986572265625	1.11175537109375
457	1.11572265625	294.429470256637	0.00551361083984375	1.11480712890625
458	1.1181640625	294.453870256575	0.00552886962890625	1.11663818359375
459	1.12060546875	294.478270256514	0.005543212890625	1.11907958984375
460	1.123046875	294.502670256452	0.00555755615234375	1.121826171875
461	1.12548828125	294.527070256391	0.00557220458984375	1.12396240234375
462	1.1279296875	294.551470256329	0.0055859375	1.12701416015625
463	1.13037109375	294.575870256267	0.00560028076171875	1.12884521484375
464	1.1328125	294.600270256206	0.00561370849609375	1.1322021484375
465	1.13525390625	294.624670256144	0.00562744140625	1.1346435546875
466	1.1376953125	294.649070256083	0.00564056396484375	1.13616943359375
467	1.14013671875	294.673470256021	0.00565399169921875	1.13861083984375
468	1.142578125	294.697870255959	0.00566680908203125	1.141357421875
469	1.14501953125	294.722270255898	0.005679931640625	1.143798828125
470	1.1474609375	294.746670255836	0.0056927490234375	1.146240234375
471	1.14990234375	294.771070255775	0.00570526123046875	1.14898681640625
472	1.15234375	294.795470255713	0.0057177734375	1.151123046875
473	1.15478515625	294.819870255651	0.00572998046875	1.15325927734375
474	1.1572265625	294.84427025559	0.00574249267578125	1.156005859375
475	1.15966796875	294.868670255528	0.00575439453125	1.15875244140625
476	1.162109375	294.893070255467	0.00576629638671875	1.160888671875
477	1.16455078125	294.917470255405	0.0057781982421875	1.163330078125
478	1.1669921875	294.941870255343	0.005789794921875	1.165771484375
479	1.16943359375	294.966270255282	0.0058013916015625	1.168212890625
480	1.171875	294.99067025522	0.00581298828125	1.170654296875
481	1.17431640625	295.015070255159	0.0058245849609375	1.173095703125
482	1.1767578125	295.039470255097	0.0058355712890625	1.17584228515625
483	1.17919921875	295.063870255035	0.00584686279296875	1.177978515625
484	1.181640625	295.088270254974	0.00585784912109375	1.18011474609375
485	1.18408203125	295.112670254912	0.00586883544921875	1.18316650390625
486	1.1865234375	295.137070254851	0.00587982177734375	1.185302734375
487	1.18896484375	295.161470254789	0.0058905029296875	1.187744140625
488	1.19140625	295.185870254727	0.00590118408203125	1.18988037109375
489	1.19384765625	295.210270254666	0.005911865234375	1.19232177734375
490	1.1962890625	295.234670254604	0.00592254638671875	1.1956787109375
491	1.19873046875	295.259070254543	0.0059326171875	1.197509765625
492	1.201171875	295.283470254481	0.0059429931640625	1.19964599609375
493	1.19873046875	295.307870254419	0.00592864990234375	1.197509765625
494	1.1962890625	295.332270254358	0.00591400146484375	1.195068359375
495	1.19384765625	295.356670254296	0.0058990478515625	1.19232177734375
496	1.19140625	295.381070254234	0.00588409423828125	1.19049072265625
497	1.18896484375	295.405470254173	0.005869140625	1.187744140625
498	1.1865234375	295.429870254111	0.0058538818359375	1.185302734375
499	1.18408203125	295.45427025405	0.005838623046875	1.18316650390625
500	1.181640625	295.478670253988	0.00582275390625	1.180419921875
501	1.17919921875	295.503070253926	0.005806884765625	1.177978515625
502	1.1767578125	295.527470253865	0.005791015625	1.175537109375
503	1.17431640625	295.551870253803	0.00577484130859375	1.17340087890625
504	1.171875	295.576270253742	0.00575836181640625	1.17095947265625
505	1.16943359375	295.60067025368	0.0057415771484375	1.16851806640625
506	1.1669921875	295.625070253618	0.00572479248046875	1.16607666015625
507	1.16455078125	295.649470253557	0.0057073974609375	1.16363525390625
508	1.162109375	295.673870253495	0.0056903076171875	1.16180419921875
509	1.15966796875	295.698270253434	0.00567230224609375	1.1590576171875
510	1.1572265625	295.722670253372	0.00565460205078125	1.156005859375
511	1.15478515625	295.74707025331	0.00563629150390625	1.1541748046875
512	1.15234375	295.771470253249	0.00561798095703125	1.151123046875
513	1.14990234375	295.795870253187	0.00559906005859375	1.14898681640625
514	1.1474609375	295.820270253126	0.005579833984375	1.14654541015625
515	1.14501953125	295.844670253064	0.00556060791015625	1.14410400390625
516	1.142578125	295.869070253002	0.00554046630859375	1.141357421875
517	1.14013671875	295.893470252941	0.0055206298828125	1.13861083984375
518	1.1376953125	295.917870252879	0.00549957275390625	1.136474609375
519	1.13525390625	295.942270252818	0.00547882080078125	1.134033203125
520	1.1328125	295.966670252756	0.00545745849609375	1.131591796875
521	1.13037109375	295.991070252694	0.005435791015625	1.12945556640625
522	1.1279296875	296.015470252633	0.0054132080078125	1.12640380859375
523	1.12548828125	296.039870252571	0.00539031982421875	1.124267578125
524	1.123046875	296.06427025251	0.005367431640625	1.121826171875
525	1.12060546875	296.088670252448	0.005343017578125	1.1199951171875
526	1.1181640625	296.113070252386	0.00531890869140625	1.11724853515625
527	1.11572265625	296.137470252325	0.00529327392578125	1.1151123046875
528	1.11328125	296.161870252263	0.0052679443359375	1.11175537109375
529	1.11083984375	296.186270252202	0.00524139404296875	1.109619140625
530	1.1083984375	296.21067025214	0.0052142333984375	1.10687255859375
531	1.10595703125	296.235070252078	0.0051861572265625	1.10504150390625
532	1.103515625	296.259470252017	0.00515716552734375	1.10260009765625
533	1.10107421875	296.283870251955	0.00512786865234375	1.099853515625
534	1.0986328125	296.308270251894	0.00509674072265625	1.097412109375
535	1.09619140625	296.332670251832	0.00506561279296875	1.09527587890625
536	1.09375	296.35707025177	0.00503173828125	1.092529296875
537	1.09130859375	296.381470251709	0.0049981689453125	1.0906982421875
538	1.0888671875	296.405870251647	0.0049627685546875	1.087646484375
539	1.08642578125	296.430270251586	0.00492584228515625	1.08551025390625
540	1.083984375	296.454670251524	0.0048876953125	1.0833740234375
541	1.08154296875	296.479070251462	0.004847412109375	1.0809326171875
542	1.0791015625	296.503470251401	0.00480621337890625	1.077880859375
543	1.07666015625	296.527870251339	0.00476165771484375	1.07574462890625
544	1.07421875	296.552270251277	0.0047161865234375	1.07330322265625
545	1.07177734375	296.576670251216	0.004666748046875	1.07086181640625
546	1.0693359375	296.601070251154	0.0046160888671875	1.06842041015625
547	1.06689453125	296.625470251093	0.00456207275390625	1.065673828125
548	1.064453125	296.649870251031	0.004505615234375	1.06353759765625
549	1.06201171875	296.674270250969	0.00444580078125	1.0614013671875
550	1.0595703125	296.698670250908	0.00438140869140625	1.05865478515625
551	1.05712890625	296.723070250846	0.00431549072265625	1.05621337890625
552	1.0546875	296.747470250785	0.004244384765625	1.053466796875
553	1.05224609375	296.771870250723	0.00417205810546875	1.051025390625
554	1.0498046875	296.796270250661	0.00409332275390625	1.048583984375
555	1.04736328125	296.8206702506	0.004014892578125	1.04644775390625
556	1.044921875	296.845070250538	0.00393280029296875	1.04400634765625
557	1.04248046875	296.869470250477	0.00384979248046875	1.04156494140625
558	1.0400390625	296.893870250415	0.00376556396484375	1.03912353515625
559	1.03759765625	296.918270250353	0.00367950439453125	1.03668212890625
560	1.03515625	296.942670250292	0.0035955810546875	1.033935546875
561	1.03271484375	296.96707025023	0.003509521484375	1.031494140625
562	1.0302734375	296.991470250169	0.00342681884765625	1.029052734375
563	1.02783203125	297.015870250107	0.0033416748046875	1.02691650390625
564	1.025390625	297.040270250045	0.003260498046875	1.02447509765625
565	1.02294921875	297.064670249984	0.00317901611328125	1.02142333984375
566	1.0205078125	297.089070249922	0.003099365234375	1.0198974609375
567	1.01806640625	297.113470249861	0.00302093505859375	1.01715087890625
568	1.015625	297.137870249799	0.00294281005859375	1.014404296875
569	1.01318359375	297.162270249737	0.00286834716796875	1.011962890625
570	1.0107421875	297.186670249676	0.00279266357421875	1.00982666015625
571	1.00830078125	297.211070249614	0.00272186279296875	1.00738525390625
572	1.005859375	297.235470249553	0.00264892578125	1.0052490234375
573	1.00341796875	297.259870249491	0.0025799560546875	1.0028076171875
574	1.0009765625	297.284270249429	0.0025115966796875	1.00067138671875
575	0.99853515625	297.308670249368	0.00244476318359375	0.99761962890625
576	0.99609375	297.333070249306	0.00238006591796875	0.9954833984375
577	0.99365234375	297.357470249245	0.00231536865234375	0.99334716796875
578	0.9912109375	297.381870249183	0.00225433349609375	0.989990234375
579	0.98876953125	297.406270249121	0.00219268798828125	0.9881591796875
580	0.986328125	297.43067024906	0.0021343994140625	0.9857177734375
581	0.98388671875	297.455070248998	0.002076416015625	0.98297119140625
582	0.9814453125	297.479470248937	0.002020263671875	0.980224609375
583	0.97900390625	297.503870248875	0.00196533203125	0.97808837890625
584	0.9765625	297.528270248813	0.00191162109375	0.97564697265625
585	0.97412109375	297.552670248752	0.00186004638671875	0.97381591796875
586	0.9716796875	297.57707024869	0.00180877685546875	0.9710693359375
587	0.96923828125	297.601470248629	0.0017596435546875	0.96771240234375
588	0.966796875	297.625870248567	0.00171142578125	0.96588134765625
589	0.96435546875	297.650270248505	0.0016650390625	0.96343994140625
590	0.9619140625	297.674670248444	0.00161895751953125	0.960693359375
591	0.95947265625	297.699070248382	0.00157501220703125	0.958251953125
592	0.95703125	297.72347024832	0.001531982421875	0.955810546875
593	0.95458984375	297.747870248259	0.0014898681640625	0.9539794921875
594	0.9521484375	297.772270248197	0.00144927978515625	0.950927734375
595	0.94970703125	297.796670248136	0.00140960693359375	0.94879150390625
596	0.947265625	297.821070248074	0.00137176513671875	0.946044921875
597	0.94482421875	297.845470248012	0.00133453369140625	0.94390869140625
598	0.9423828125	297.869870247951	0.0012982177734375	0.94207763671875
599	0.93994140625	297.894270247889	0.0012628173828125	0.938720703125
600	0.9375	297.918670247828	0.00122894287109375	0.936279296875
601	0.93505859375	297.943070247766	0.00119598388671875	0.933837890625
602	0.9326171875	297.967470247704	0.00116363525390625	0.9320068359375
603	0.93017578125	297.991870247643	0.00113250732421875	0.928955078125
604	0.927734375	298.016270247581	0.00110198974609375	0.926513671875
605	0.92529296875	298.04067024752	0.001072998046875	0.924072265625
606	0.9228515625	298.065070247458	0.00104461669921875	0.921630859375
607	0.92041015625	298.089470247396	0.0010162353515625	0.91949462890625
608	0.91796875	298.113870247335	0.00099029541015625	0.9173583984375
609	0.91552734375	298.138270247273	0.00096405029296875	0.91522216796875
610	0.9130859375	298.162670247212	0.0009393310546875	0.91217041015625
611	0.91064453125	298.18707024715	0.00091400146484375	0.90972900390625
612	0.908203125	298.211470247088	0.00089019775390625	0.906982421875
613	0.90576171875	298.235870247027	0.0008673095703125	0.90484619140625
614	0.9033203125	298.260270246965	0.0008447265625	0.90240478515625
615	0.90087890625	298.284670246904	0.00082366943359375	0.90057373046875
616	0.8984375	298.309070246842	0.0008013916015625	0.897216796875
617	0.89599609375	298.33347024678	0.0007818603515625	0.8953857421875
618	0.8935546875	298.357870246719	0.00076141357421875	0.89263916015625
619	0.89111328125	298.382270246657	0.00074310302734375	0.89019775390625
620	0.888671875	298.406670246596	0.0007232666015625	0.88775634765625
621	0.88623046875	298.431070246534	0.0007049560546875	0.885009765625
622	0.8837890625	298.455470246472	0.0006878662109375	0.88348388671875
623	0.88134765625	298.479870246411	0.000670166015625	0.880126953125
624	0.87890625	298.504270246349	0.00065460205078125	0.87799072265625
625	0.87646484375	298.528670246288	0.00063690185546875	0.875244140625
626	0.8740234375	298.553070246226	0.00062286376953125	0.87371826171875
627	0.87158203125	298.577470246164	0.00060638427734375	0.8709716796875
628	0.869140625	298.601870246103	0.00059234619140625	0.8685302734375
629	0.86669921875	298.626270246041	0.000577392578125	0.86517333984375
630	0.8642578125	298.65067024598	0.000562744140625	0.8636474609375
631	0.86181640625	298.675070245918	0.00054901123046875	0.860595703125
632	0.859375	298.699470245856	0.00053466796875	0.858154296875
633	0.85693359375	298.723870245795	0.0005230712890625	0.8563232421875
634	0.8544921875	298.748270245733	0.00050872802734375	0.85357666015625
635	0.85205078125	298.772670245672	0.00049761962890625	0.85113525390625
636	0.849609375	298.79707024561	0.000484466552734375	0.848388671875
637	0.84716796875	298.821470245548	0.00047369384765625	0.84625244140625
638	0.8447265625	298.845870245487	0.00046142578125	0.84381103515625
639	0.84228515625	298.870270245425	0.000449676513671875	0.841064453125
640	0.83984375	298.894670245363	0.000439483642578125	0.83892822265625
641	0.83740234375	298.919070245302	0.000427520751953125	0.8367919921875
642	0.8349609375	298.94347024524	0.00041851806640625	0.83404541015625
643	0.83251953125	298.967870245179	0.000406005859375	0.831298828125
644	0.830078125	298.992270245117	0.000397735595703125	0.828857421875
645	0.82763671875	299.016670245055	0.000387176513671875	0.826416015625
646	0.8251953125	299.041070244994	0.0003780517578125	0.823974609375
647	0.82275390625	299.065470244932	0.000368621826171875	0.82244873046875
648	0.8203125	299.089870244871	0.000358795166015625	0.819091796875
649	0.81787109375	299.114270244809	0.0003505859375	0.8172607421875
650	0.8154296875	299.138670244747	0.000340850830078125	0.814208984375
651	0.81298828125	299.163070244686	0.00033380126953125	0.8123779296875
652	0.810546875	299.187470244624	0.000322906494140625	0.809326171875
653	0.80810546875	299.211870244563	0.000316497802734375	0.80718994140625
654	0.8056640625	299.236270244501	0.00030706787109375	0.804443359375
655	0.80322265625	299.260670244439	0.000299896240234375	0.80230712890625
656	0.80078125	299.285070244378	0.000291717529296875	0.8001708984375
657	0.79833984375	299.309470244316	0.000283447265625	0.7977294921875
658	0.7958984375	299.333870244255	0.000276824951171875	0.7952880859375
659	0.79345703125	299.358270244193	0.000268218994140625	0.79254150390625
660	0.791015625	299.382670244131	0.00026300048828125	0.789794921875
661	0.78857421875	299.40707024407	0.000254058837890625	0.787353515625
662	0.7861328125	299.431470244008	0.00024896240234375	0.7855224609375
663	0.78369140625	299.455870243947	0.00024102783203125	0.78277587890625
664	0.78125	299.480270243885	0.0002352294921875	0.78094482421875
665	0.77880859375	299.504670243823	0.000228515625	0.77850341796875
666	0.7763671875	299.529070243762	0.0002213134765625	0.7757568359375
667	0.77392578125	299.5534702437	0.00021624755859375	0.77362060546875
668	0.771484375	299.577870243639	0.000208740234375	0.7708740234375
669	0.76904296875	299.602270243577	0.000204986572265625	0.76873779296875
670	0.7666015625	299.626670243515	0.000196502685546875	0.76568603515625
671	0.76416015625	299.651070243454	0.00019293212890625	0.762939453125
672	0.76171875	299.675470243392	0.000186004638671875	0.76080322265625
673	0.75927734375	299.699870243331	0.0001815185546875	0.7586669921875
674	0.7568359375	299.724270243269	0.000175323486328125	0.75653076171875
675	0.75439453125	299.748670243207	0.000168914794921875	0.75347900390625
676	0.751953125	299.773070243146	0.000164703369140625	0.75103759765625
677	0.74951171875	299.797470243084	0.0001580810546875	0.749298095703125
678	0.7470703125	299.821870243023	0.000155059814453125	0.746826171875
679	0.74462890625	299.846270242961	0.000147674560546875	0.74444580078125
680	0.7421875	299.870670242899	0.000144805908203125	0.741973876953125
681	0.73974609375	299.895070242838	0.000138641357421875	0.73956298828125
682	0.7373046875	299.919470242776	0.000134490966796875	0.73712158203125
683	0.73486328125	299.943870242715	0.00012933349609375	0.734649658203125
684	0.732421875	299.968270242653	0.000123687744140625	0.732177734375
685	0.72998046875	299.992670242591	0.000120208740234375	0.729766845703125
686	0.7275390625	300.01707024253	0.000114013671875	0.727325439453125
687	0.72509765625	300.041470242468	0.00011181640625	0.72491455078125
688	0.72265625	300.065870242407	0.000105010986328125	0.722442626953125
689	0.72021484375	300.090270242345	0.000102935791015625	0.720001220703125
690	0.7177734375	300.114670242283	9.7564697265625E-05	0.717559814453125
691	0.71533203125	300.139070242222	9.46044921875E-05	0.715179443359375
692	0.712890625	300.16347024216	9.0057373046875E-05	0.712738037109375
693	0.71044921875	300.187870242098	8.502197265625E-05	0.710235595703125
694	0.7080078125	300.212270242037	8.251953125E-05	0.707855224609375
695	0.70556640625	300.236670241975	7.6904296875E-05	0.705230712890625
696	0.703125	300.261070241914	7.5592041015625E-05	0.702880859375
697	0.70068359375	300.285470241852	6.9244384765625E-05	0.700408935546875
698	0.6982421875	300.30987024179	6.7779541015625E-05	0.69793701171875
699	0.69580078125	300.334270241729	6.292724609375E-05	0.695526123046875
700	0.693359375	300.358670241667	6.0302734375E-05	0.693115234375
701	0.69091796875	300.383070241606	5.682373046875E-05	0.690704345703125
702	0.6884765625	300.407470241544	5.2642822265625E-05	0.688201904296875
703	0.68603515625	300.431870241482	5.0872802734375E-05	0.68585205078125
704	0.68359375	300.456270241421	4.57244873046875E-05	0.683349609375
705	0.68115234375	300.480670241359	4.490966796875E-05	0.68096923828125
706	0.6787109375	300.505070241298	3.9288330078125E-05	0.678497314453125
707	0.67626953125	300.529470241236	3.83941650390625E-05	0.676116943359375
708	0.673828125	300.553870241174	3.416748046875E-05	0.673614501953125
709	0.67138671875	300.578270241113	3.19122314453125E-05	0.6712646484375
710	0.6689453125	300.602670241051	2.8814697265625E-05	0.668792724609375
711	0.66650390625	300.62707024099	2.474365234375E-05	0.66632080078125
712	0.6640625	300.651470240928	2.38311767578125E-05	0.663909912109375
713	0.66162109375	300.675870240866	1.9000244140625E-05	0.661468505859375
714	0.6591796875	300.700270240805	1.87530517578125E-05	0.65899658203125
715	0.65673828125	300.724670240743	1.36505126953125E-05	0.656494140625
716	0.654296875	300.749070240682	1.29730224609375E-05	0.654083251953125
717	0.65185546875	300.77347024062	9.2437744140625E-06	0.651702880859375
718	0.6494140625	300.797870240558	7.232666015625E-06	0.6492919921875
719	0.64697265625	300.822270240497	4.69970703125E-06	0.64691162109375
720	0.64453125	300.846670240435	1.37420654296875E-06	0.6444091796875
721	0.64208984375	300.871070240374	5.65185546875E-07	0.641998291015625
722	0.6396484375	300.895470240312	-3.7811279296875E-06	0.63958740234375
723	0.63720703125	300.91987024025	-3.3966064453125E-06	0.637237548828125
724	0.634765625	300.944270240189	-8.331298828125E-06	0.634613037109375
725	0.63232421875	300.968670240127	-8.3465576171875E-06	0.63232421875
726	0.6298828125	300.993070240066	-1.15142822265625E-05	0.6298828125
727	0.62744140625	301.017470240004	-1.28448486328125E-05	0.6275634765625
728	0.625	301.041870239942	-1.512451171875E-05	0.62506103515625
729	0.62255859375	301.066270239881	-1.8121337890625E-05	0.622711181640625
730	0.6201171875	301.090670239819	-1.82861328125E-05	0.620269775390625
731	0.61767578125	301.115070239758	-2.19390869140625E-05	0.617889404296875
732	0.615234375	301.139470239696	-2.13134765625E-05	0.615447998046875
733	0.61279296875	301.163870239634	-2.58148193359375E-05	0.613006591796875
734	0.6103515625	301.188270239573	-2.53814697265625E-05	0.610687255859375
735	0.60791015625	301.212670239511	-2.83477783203125E-05	0.60821533203125
736	0.60546875	301.23707023945	-2.930908203125E-05	0.605865478515625
737	0.60302734375	301.261470239388	-3.10699462890625E-05	0.603363037109375
738	0.6005859375	301.285870239326	-3.38134765625E-05	0.60052490234375
739	0.59814453125	301.310270239265	-3.36578369140625E-05	0.598114013671875
740	0.595703125	301.334670239203	-3.73565673828125E-05	0.595733642578125
741	0.59326171875	301.359070239141	-3.62945556640625E-05	0.59326171875
742	0.5908203125	301.38347023908	-4.0191650390625E-05	0.5908203125
743	0.58837890625	301.407870239018	-3.9703369140625E-05	0.588409423828125
744	0.5859375	301.432270238957	-4.20867919921875E-05	0.5859375
745	0.58349609375	301.456670238895	-4.2877197265625E-05	0.58349609375
746	0.5810546875	301.481070238833	-4.44183349609375E-05	0.58111572265625
747	0.57861328125	301.505470238772	-4.681396484375E-05	0.578582763671875
748	0.576171875	301.52987023871	-4.64874267578125E-05	0.576171875
749	0.57373046875	301.554270238649	-4.9713134765625E-05	0.57373046875
750	0.5712890625	301.578670238587	-4.840087890625E-05	0.57122802734375
751	0.56884765625	301.603070238525	-5.23681640625E-05	0.56884765625
752	0.56640625	301.627470238464	-5.157470703125E-05	0.566375732421875
753	0.56396484375	301.651870238402	-5.40771484375E-05	0.563934326171875
754	0.5615234375	301.676270238341	-5.4534912109375E-05	0.5615234375
755	0.55908203125	301.700670238279	-5.6121826171875E-05	0.55908203125
756	0.556640625	301.725070238217	-5.841064453125E-05	0.556640625
757	0.55419921875	301.749470238156	-5.77392578125E-05	0.554168701171875
758	0.5517578125	301.773870238094	-6.0791015625E-05	0.55169677734375
759	0.54931640625	301.798270238033	-5.914306640625E-05	0.549285888671875
760	0.546875	301.822670237971	-6.28662109375E-05	0.54681396484375
761	0.54443359375	301.847070237909	-6.1981201171875E-05	0.54443359375
762	0.5419921875	301.871470237848	-6.390380859375E-05	0.541961669921875
763	0.53955078125	301.895870237786	-6.439208984375E-05	0.53948974609375
764	0.537109375	301.920270237725	-6.5399169921875E-05	0.537109375
765	0.53466796875	301.944670237663	-6.7474365234375E-05	0.53466796875
766	0.5322265625	301.969070237601	-6.6497802734375E-05	0.53228759765625
767	0.52978515625	301.99347023754	-6.927490234375E-05	0.52978515625
768	0.52734375	302.017870237478	-6.7657470703125E-05	0.52734375
769	0.52490234375	302.042270237417	-7.110595703125E-05	0.524871826171875
770	0.5224609375	302.066670237355	-6.9610595703125E-05	0.522430419921875
771	0.52001953125	302.091070237293	-7.1533203125E-05	0.519989013671875
772	0.517578125	302.115470237232	-7.1563720703125E-05	0.517547607421875
773	0.51513671875	302.13987023717	-7.2418212890625E-05	0.515167236328125
774	0.5126953125	302.164270237109	-7.4432373046875E-05	0.512725830078125
775	0.51025390625	302.188670237047	-7.3211669921875E-05	0.51025390625
776	0.5078125	302.213070236985	-7.6171875E-05	0.5078125
777	0.50537109375	302.237470236924	-7.427978515625E-05	0.50543212890625
778	0.5029296875	302.261870236862	-7.7667236328125E-05	0.502899169921875
779	0.50048828125	302.286270236801	-7.623291015625E-05	0.500518798828125
780	0.498046875	302.310670236739	-7.806396484375E-05	0.498046875
781	0.49560546875	302.335070236677	-7.8216552734375E-05	0.49560546875
782	0.4931640625	302.359470236616	-7.8857421875E-05	0.49322509765625
783	0.49072265625	302.383870236554	-8.074951171875E-05	0.49078369140625
784	0.48828125	302.408270236493	-7.940673828125E-05	0.488311767578125
785	0.48583984375	302.432670236431	-8.209228515625E-05	0.485809326171875
786	0.4833984375	302.457070236369	-7.99560546875E-05	0.483428955078125
787	0.48095703125	302.481470236308	-8.33740234375E-05	0.48101806640625
788	0.478515625	302.505870236246	-8.203125E-05	0.478546142578125
789	0.47607421875	302.530270236184	-8.3648681640625E-05	0.476104736328125
790	0.4736328125	302.554670236123	-8.3648681640625E-05	0.47369384765625
791	0.47119140625	302.579070236061	-8.3892822265625E-05	0.471221923828125
792	0.46875	302.603470236	-8.5784912109375E-05	0.46881103515625
793	0.46630859375	302.627870235938	-8.416748046875E-05	0.46636962890625
794	0.4638671875	302.652270235876	-8.67919921875E-05	0.4639892578125
795	0.46142578125	302.676670235815	-8.4625244140625E-05	0.46148681640625
796	0.458984375	302.701070235753	-8.7738037109375E-05	0.45904541015625
797	0.45654296875	302.725470235692	-8.6334228515625E-05	0.45660400390625
798	0.4541015625	302.74987023563	-8.782958984375E-05	0.454071044921875
799	0.45166015625	302.774270235568	-8.770751953125E-05	0.451751708984375
800	0.44921875	302.798670235507	-8.77685546875E-05	0.4493408203125
801	0.44677734375	302.823070235445	-8.9599609375E-05	0.44683837890625
802	0.4443359375	302.847470235384	-8.7860107421875E-05	0.444427490234375
803	0.44189453125	302.871870235322	-9.0240478515625E-05	0.441925048828125
804	0.439453125	302.89627023526	-8.7921142578125E-05	0.43951416015625
805	0.43701171875	302.920670235199	-9.088134765625E-05	0.4371337890625
806	0.4345703125	302.945070235137	-8.953857421875E-05	0.434661865234375
807	0.43212890625	302.969470235076	-9.0789794921875E-05	0.43218994140625
808	0.4296875	302.993870235014	-9.08203125E-05	0.4298095703125
809	0.42724609375	303.018270234952	-9.088134765625E-05	0.427398681640625
810	0.4248046875	303.042670234891	-9.2742919921875E-05	0.42486572265625
811	0.42236328125	303.067070234829	-9.0789794921875E-05	0.42242431640625
812	0.419921875	303.091470234768	-9.3353271484375E-05	0.41998291015625
813	0.41748046875	303.115870234706	-9.100341796875E-05	0.4176025390625
814	0.4150390625	303.140270234644	-9.3841552734375E-05	0.415130615234375
815	0.41259765625	303.164670234583	-9.2498779296875E-05	0.4127197265625
816	0.41015625	303.189070234521	-9.3658447265625E-05	0.410247802734375
817	0.40771484375	303.21347023446	-9.3536376953125E-05	0.4078369140625
818	0.4052734375	303.237870234398	-9.3597412109375E-05	0.405426025390625
819	0.40283203125	303.262270234336	-9.5458984375E-05	0.402923583984375
820	0.400390625	303.286670234275	-9.3658447265625E-05	0.400543212890625
821	0.39794921875	303.311070234213	-9.6160888671875E-05	0.39813232421875
822	0.3955078125	303.335470234152	-9.3719482421875E-05	0.3956298828125
823	0.39306640625	303.35987023409	-9.661865234375E-05	0.39312744140625
824	0.390625	303.384270234028	-9.503173828125E-05	0.390716552734375
825	0.38818359375	303.408670233967	-9.6038818359375E-05	0.388336181640625
826	0.3857421875	303.433070233905	-9.60693359375E-05	0.3858642578125
827	0.38330078125	303.457470233844	-9.5794677734375E-05	0.383331298828125
828	0.380859375	303.481870233782	-9.7747802734375E-05	0.3809814453125
829	0.37841796875	303.50627023372	-9.5733642578125E-05	0.3785400390625
830	0.3759765625	303.530670233659	-9.8052978515625E-05	0.376068115234375
831	0.37353515625	303.555070233597	-9.552001953125E-05	0.37359619140625
832	0.37109375	303.579470233536	-9.8236083984375E-05	0.37115478515625
833	0.36865234375	303.603870233474	-9.6832275390625E-05	0.3687744140625
834	0.3662109375	303.628270233412	-9.7564697265625E-05	0.3663330078125
835	0.36376953125	303.652670233351	-9.7686767578125E-05	0.363861083984375
836	0.361328125	303.677070233289	-9.7259521484375E-05	0.361419677734375
837	0.35888671875	303.701470233227	-9.9212646484375E-05	0.359039306640625
838	0.3564453125	303.725870233166	-9.70458984375E-05	0.3565673828125
839	0.35400390625	303.750270233104	-9.9365234375E-05	0.354156494140625
840	0.3515625	303.774670233043	-9.6893310546875E-05	0.351715087890625
841	0.34912109375	303.799070232981	-9.9639892578125E-05	0.34918212890625
842	0.3466796875	303.823470232919	-9.814453125E-05	0.346771240234375
843	0.34423828125	303.847870232858	-9.8907470703125E-05	0.3443603515625
844	0.341796875	303.872270232796	-9.906005859375E-05	0.3419189453125
845	0.33935546875	303.896670232735	-9.8602294921875E-05	0.339508056640625
846	0.3369140625	303.921070232673	-0.000100494384765625	0.3370361328125
847	0.33447265625	303.945470232611	-9.82666015625E-05	0.334625244140625
848	0.33203125	303.96987023255	-0.0001007080078125	0.3321533203125
849	0.32958984375	303.994270232488	-9.8175048828125E-05	0.3297119140625
850	0.3271484375	304.018670232427	-0.000100799560546875	0.32720947265625
851	0.32470703125	304.043070232365	-9.9517822265625E-05	0.3248291015625
852	0.322265625	304.067470232303	-0.000100250244140625	0.32232666015625
853	0.31982421875	304.091870232242	-0.000100311279296875	0.319915771484375
854	0.3173828125	304.11627023218	-9.9822998046875E-05	0.317474365234375
855	0.31494140625	304.140670232119	-0.00010174560546875	0.315032958984375
856	0.3125	304.165070232057	-9.9517822265625E-05	0.3126220703125
857	0.31005859375	304.189470231995	-0.000101776123046875	0.310150146484375
858	0.3076171875	304.213870231934	-9.9395751953125E-05	0.307769775390625
859	0.30517578125	304.238270231872	-0.000101959228515625	0.305267333984375
860	0.302734375	304.262670231811	-0.000100616455078125	0.30279541015625
861	0.30029296875	304.287070231749	-0.00010125732421875	0.300384521484375
862	0.2978515625	304.311470231687	-0.000101409912109375	0.298004150390625
863	0.29541015625	304.335870231626	-0.0001009521484375	0.2955322265625
864	0.29296875	304.360270231564	-0.000102935791015625	0.2930908203125
865	0.29052734375	304.384670231503	-0.0001005859375	0.290618896484375
866	0.2880859375	304.409070231441	-0.000102996826171875	0.288238525390625
867	0.28564453125	304.433470231379	-0.0001004638671875	0.2857666015625
868	0.283203125	304.457870231318	-0.000102996826171875	0.28326416015625
869	0.28076171875	304.482270231256	-0.0001016845703125	0.2808837890625
870	0.2783203125	304.506670231195	-0.00010235595703125	0.2784423828125
871	0.27587890625	304.531070231133	-0.00010247802734375	0.2760009765625
872	0.2734375	304.555470231071	-0.000101959228515625	0.273590087890625
873	0.27099609375	304.57987023101	-0.000103912353515625	0.2711181640625
874	0.2685546875	304.604270230948	-0.000101654052734375	0.268707275390625
875	0.26611328125	304.628670230887	-0.000103973388671875	0.2662353515625
876	0.263671875	304.653070230825	-0.000101531982421875	0.26385498046875
877	0.26123046875	304.677470230763	-0.00010406494140625	0.2613525390625
878	0.2587890625	304.701870230702	-0.000102752685546875	0.2589111328125
879	0.25634765625	304.72627023064	-0.000103424072265625	0.256439208984375
880	0.25390625	304.750670230579	-0.000103668212890625	0.25408935546875
881	0.25146484375	304.775070230517	-0.000103118896484375	0.25164794921875
882	0.2490234375	304.799470230455	-0.000105224609375	0.24920654296875
883	0.24658203125	304.823870230394	-0.00010302734375	0.246734619140625
884	0.244140625	304.848270230332	-0.0001055908203125	0.244232177734375
885	0.24169921875	304.872670230271	-0.00010308837890625	0.241790771484375
886	0.2392578125	304.897070230209	-0.00010565185546875	0.239410400390625
887	0.23681640625	304.921470230147	-0.000104461669921875	0.2369384765625
888	0.234375	304.945870230086	-0.000105072021484375	0.234466552734375
889	0.23193359375	304.970270230024	-0.00010516357421875	0.232086181640625
890	0.2294921875	304.994670229962	-0.000104583740234375	0.2296142578125
891	0.22705078125	305.019070229901	-0.00010662841796875	0.227142333984375
892	0.224609375	305.043470229839	-0.000104339599609375	0.2247314453125
893	0.22216796875	305.067870229778	-0.000106842041015625	0.22235107421875
894	0.2197265625	305.092270229716	-0.000104278564453125	0.21990966796875
895	0.21728515625	305.116670229654	-0.0001068115234375	0.217437744140625
896	0.21484375	305.141070229593	-0.000105560302734375	0.214935302734375
897	0.21240234375	305.165470229531	-0.00010614013671875	0.2125244140625
898	0.2099609375	305.18987022947	-0.000106170654296875	0.2100830078125
899	0.20751953125	305.214270229408	-0.000105560302734375	0.207611083984375
900	0.205078125	305.238670229346	-0.000107635498046875	0.205230712890625
901	0.20263671875	305.263070229285	-0.000105224609375	0.202850341796875
902	0.2001953125	305.287470229223	-0.000107696533203125	0.2003173828125
903	0.19775390625	305.311870229162	-0.000105194091796875	0.197906494140625
904	0.1953125	305.3362702291	-0.000107574462890625	0.19537353515625
905	0.19287109375	305.360670229038	-0.00010638427734375	0.193084716796875
906	0.1904296875	305.385070228977	-0.00010693359375	0.1905517578125
907	0.18798828125	305.409470228915	-0.000107208251953125	0.188140869140625
908	0.185546875	305.433870228854	-0.0001065673828125	0.18572998046875
909	0.18310546875	305.458270228792	-0.00010858154296875	0.18328857421875
910	0.1806640625	305.48267022873	-0.000106201171875	0.18084716796875
911	0.17822265625	305.507070228669	-0.000108734130859375	0.17840576171875
912	0.17578125	305.531470228607	-0.000106231689453125	0.175933837890625
913	0.17333984375	305.555870228546	-0.000108795166015625	0.17352294921875
914	0.1708984375	305.580270228484	-0.000107635498046875	0.1710205078125
915	0.16845703125	305.604670228422	-0.000108184814453125	0.168609619140625
916	0.166015625	305.629070228361	-0.00010858154296875	0.166168212890625
917	0.16357421875	305.653470228299	-0.000107879638671875	0.16375732421875
918	0.1611328125	305.677870228238	-0.000110015869140625	0.16131591796875
919	0.15869140625	305.702270228176	-0.00010760498046875	0.1588134765625
920	0.15625	305.726670228114	-0.00011004638671875	0.1563720703125
921	0.15380859375	305.751070228053	-0.000107513427734375	0.15399169921875
922	0.1513671875	305.775470227991	-0.000109954833984375	0.1514892578125
923	0.14892578125	305.79987022793	-0.000108856201171875	0.149017333984375
924	0.146484375	305.824270227868	-0.00010931396484375	0.146636962890625
925	0.14404296875	305.848670227806	-0.000109588623046875	0.1441650390625
926	0.1416015625	305.873070227745	-0.000108795166015625	0.141754150390625
927	0.13916015625	305.897470227683	-0.000110870361328125	0.13934326171875
928	0.13671875	305.921870227622	-0.0001083984375	0.136871337890625
929	0.13427734375	305.94627022756	-0.000110748291015625	0.134490966796875
930	0.1318359375	305.970670227498	-0.000108123779296875	0.13201904296875
931	0.12939453125	305.995070227437	-0.000110565185546875	0.1295166015625
932	0.126953125	306.019470227375	-0.000109130859375	0.12713623046875
933	0.12451171875	306.043870227314	-0.00010931396484375	0.124603271484375
934	0.1220703125	306.068270227252	-0.00010931396484375	0.12225341796875
935	0.11962890625	306.09267022719	-0.0001082763671875	0.11981201171875
936	0.1171875	306.117070227129	-0.00011016845703125	0.117401123046875
937	0.11474609375	306.141470227067	-0.000107513427734375	0.11492919921875
938	0.1123046875	306.165870227005	-0.000109710693359375	0.11248779296875
939	0.10986328125	306.190270226944	-0.00010699462890625	0.1099853515625
940	0.107421875	306.214670226882	-0.00010919189453125	0.107513427734375
941	0.10498046875	306.239070226821	-0.00010797119140625	0.10516357421875
942	0.1025390625	306.263470226759	-0.0001082763671875	0.10272216796875
943	0.10009765625	306.287870226697	-0.000108551025390625	0.10028076171875
944	0.09765625	306.312270226636	-0.000107666015625	0.097869873046875
945	0.09521484375	306.336670226574	-0.0001097412109375	0.095428466796875
946	0.0927734375	306.361070226513	-0.000107269287109375	0.09295654296875
947	0.09033203125	306.385470226451	-0.000109527587890625	0.090484619140625
948	0.087890625	306.409870226389	-0.00010699462890625	0.088043212890625
949	0.08544921875	306.434270226328	-0.0001092529296875	0.085601806640625
950	0.0830078125	306.458670226266	-0.000108184814453125	0.083221435546875
951	0.08056640625	306.483070226205	-0.000108551025390625	0.080718994140625
952	0.078125	306.507470226143	-0.0001090087890625	0.07830810546875
953	0.07568359375	306.531870226081	-0.0001082763671875	0.075836181640625
954	0.0732421875	306.55627022602	-0.00011053466796875	0.073455810546875
955	0.07080078125	306.580670225958	-0.000108154296875	0.070953369140625
956	0.068359375	306.605070225897	-0.000110626220703125	0.068511962890625
957	0.06591796875	306.629470225835	-0.00010821533203125	0.066131591796875
958	0.0634765625	306.653870225773	-0.00011065673828125	0.06365966796875
959	0.06103515625	306.678270225712	-0.000109710693359375	0.06121826171875
960	0.05859375	306.70267022565	-0.00011016845703125	0.058807373046875
961	0.05615234375	306.727070225589	-0.000110626220703125	0.056365966796875
962	0.0537109375	306.751470225527	-0.000109832763671875	0.053924560546875
963	0.05126953125	306.775870225465	-0.00011212158203125	0.05145263671875
964	0.048828125	306.800270225404	-0.000109771728515625	0.048974609375
965	0.04638671875	306.824670225342	-0.0001123046875	0.046563720703125
966	0.0439453125	306.849070225281	-0.000109893798828125	0.044110107421875
967	0.04150390625	306.873470225219	-0.0001124267578125	0.041644287109375
968	0.0390625	306.897870225157	-0.000111419677734375	0.039202880859375
969	0.03662109375	306.922270225096	-0.000111968994140625	0.036767578125
970	0.0341796875	306.946670225034	-0.0001124267578125	0.0343414306640625
971	0.03173828125	306.971070224973	-0.0001116943359375	0.0319091796875
972	0.029296875	306.995470224911	-0.000113983154296875	0.02945556640625
973	0.02685546875	307.019870224849	-0.000111602783203125	0.027020263671875
974	0.0244140625	307.044270224788	-0.000114166259765625	0.024578857421875
975	0.02197265625	307.068670224726	-0.0001116943359375	0.0221466064453125
976	0.01953125	307.093070224665	-0.000114227294921875	0.01968994140625
977	0.01708984375	307.117470224603	-0.000113189697265625	0.0172454833984375
978	0.0146484375	307.141870224541	-0.0001136474609375	0.0147857666015625
979	0.01220703125	307.16627022448	-0.000114013671875	0.0123809814453125
980	0.009765625	307.190670224418	-0.0001131591796875	0.0099334716796875
981	0.00732421875	307.215070224357	-0.0001153564453125	0.007476806640625
982	0.0048828125	307.239470224295	-0.000112762451171875	0.00505981445312501
983	0.00244140625	307.263870224233	-0.0001151123046875	0.002593994140625
984	0	307.288270224172	-0.00011248779296875	0.000177001953125006
985	0.00244140625	307.31267022411	-0.00011456298828125	0.0025970458984375
986	0.0048828125	307.337070224048	-0.00011322021484375	0.0050506591796875
987	0.00732421875	307.361470223987	-0.000113311767578125	0.007489013671875
988	0.009765625	307.385870223925	-0.000113433837890625	0.009918212890625
989	0.01220703125	307.410270223864	-0.000112274169921875	0.0123626708984375
990	0.0146484375	307.434670223802	-0.00011419677734375	0.0147979736328125
991	0.01708984375	307.45907022374	-0.000111419677734375	0.0172637939453125
992	0.01953125	307.483470223679	-0.000113616943359375	0.019696044921875
993	0.02197265625	307.507870223617	-0.000110870361328125	0.0221405029296875
