Index	Potential applied (V)	Time (s)	WE(1).Current (A)	WE(1).Potential (V)
1	0.00244140625	6.63694198324333	-0.0001185302734375	0.0025909423828125
2	0.0048828125	6.66134198318173	-0.000115631103515625	0.00504150390624999
3	0.00732421875	6.68574198312012	-0.00011737060546875	0.00749816894531249
4	0.009765625	6.71014198305852	-0.00011572265625	0.00992736816406251
5	0.01220703125	6.73454198299692	-0.000116607666015625	0.012384033203125
6	0.0146484375	6.75894198293531	-0.0001168212890625	0.0148162841796875
7	0.01708984375	6.78334198287371	-0.000115631103515625	0.0172576904296875
8	0.01953125	6.8077419828121	-0.0001170654296875	0.019683837890625
9	0.02197265625	6.8321419827505	-0.00011474609375	0.022125244140625
10	0.0244140625	6.8565419826889	-0.000117523193359375	0.0245758056640625
11	0.02685546875	6.88094198262729	-0.0001146240234375	0.027008056640625
12	0.029296875	6.90534198256569	-0.000116485595703125	0.029473876953125
13	0.03173828125	6.92974198250408	-0.000114837646484375	0.031890869140625
14	0.0341796875	6.95414198244248	-0.000115814208984375	0.0343475341796875
15	0.03662109375	6.97854198238088	-0.00011602783203125	0.036761474609375
16	0.0390625	7.00294198231927	-0.000114959716796875	0.039208984375
17	0.04150390625	7.02734198225767	-0.000116424560546875	0.041644287109375
18	0.0439453125	7.05174198219606	-0.00011419677734375	0.0441131591796875
19	0.04638671875	7.07614198213446	-0.0001170654296875	0.0465423583984375
20	0.048828125	7.10054198207285	-0.000114166259765625	0.048974609375
21	0.05126953125	7.12494198201125	-0.000116119384765625	0.051422119140625
22	0.0537109375	7.14934198194965	-0.000114532470703125	0.053863525390625
23	0.05615234375	7.17374198188804	-0.000115570068359375	0.056243896484375
24	0.05859375	7.19814198182644	-0.000115753173828125	0.058624267578125
25	0.06103515625	7.22254198176483	-0.000114593505859375	0.06109619140625
26	0.0634765625	7.24694198170323	-0.000116058349609375	0.063568115234375
27	0.06591796875	7.27134198164163	-0.00011370849609375	0.0660400390625
28	0.068359375	7.29574198158002	-0.000116485595703125	0.068450927734375
29	0.07080078125	7.32014198151842	-0.000113494873046875	0.070892333984375
30	0.0732421875	7.34454198145681	-0.000115325927734375	0.073394775390625
31	0.07568359375	7.36894198139521	-0.000113555908203125	0.07574462890625
32	0.078125	7.39334198133361	-0.000114501953125	0.078216552734375
33	0.08056640625	7.417741981272	-0.00011456298828125	0.08062744140625
34	0.0830078125	7.4421419812104	-0.000113372802734375	0.083099365234375
35	0.08544921875	7.46654198114879	-0.00011468505859375	0.0855712890625
36	0.087890625	7.49094198108719	-0.000112274169921875	0.087982177734375
37	0.09033203125	7.51534198102559	-0.000114898681640625	0.090423583984375
38	0.0927734375	7.53974198096398	-0.00011187744140625	0.092864990234375
39	0.09521484375	7.56414198090238	-0.0001136474609375	0.0953369140625
40	0.09765625	7.58854198084077	-0.00011187744140625	0.0977783203125
41	0.10009765625	7.61294198077917	-0.000112823486328125	0.100189208984375
42	0.1025390625	7.63734198071757	-0.00011285400390625	0.102630615234375
43	0.10498046875	7.66174198065596	-0.00011181640625	0.1051025390625
44	0.107421875	7.68614198059436	-0.0001131591796875	0.10748291015625
45	0.10986328125	7.71054198053275	-0.000110931396484375	0.109954833984375
46	0.1123046875	7.73494198047115	-0.000113677978515625	0.112396240234375
47	0.11474609375	7.75934198040954	-0.000110748291015625	0.11480712890625
48	0.1171875	7.78374198034794	-0.0001126708984375	0.117279052734375
49	0.11962890625	7.80814198028634	-0.0001109619140625	0.119720458984375
50	0.1220703125	7.83254198022473	-0.000112030029296875	0.122161865234375
51	0.12451171875	7.85694198016313	-0.000112213134765625	0.124603271484375
52	0.126953125	7.88134198010152	-0.00011126708984375	0.127044677734375
53	0.12939453125	7.90574198003992	-0.0001126708984375	0.12945556640625
54	0.1318359375	7.93014197997832	-0.000110595703125	0.1319580078125
55	0.13427734375	7.95454197991671	-0.00011346435546875	0.134307861328125
56	0.13671875	7.97894197985511	-0.00011065673828125	0.136810302734375
57	0.13916015625	8.0033419797935	-0.00011273193359375	0.1392822265625
58	0.1416015625	8.0277419797319	-0.000110931396484375	0.14166259765625
59	0.14404296875	8.0521419796703	-0.000112152099609375	0.144134521484375
60	0.146484375	8.07654197960869	-0.0001121826171875	0.14654541015625
61	0.14892578125	8.10094197954709	-0.00011126708984375	0.149078369140625
62	0.1513671875	8.12534197948548	-0.000112518310546875	0.151458740234375
63	0.15380859375	8.14974197942388	-0.00011029052734375	0.153839111328125
64	0.15625	8.17414197936228	-0.000113006591796875	0.15631103515625
65	0.15869140625	8.19854197930067	-0.0001099853515625	0.158721923828125
66	0.1611328125	8.22294197923907	-0.00011187744140625	0.161224365234375
67	0.16357421875	8.24734197917746	-0.00010992431640625	0.16363525390625
68	0.166015625	8.27174197911586	-0.000111053466796875	0.16607666015625
69	0.16845703125	8.29614197905425	-0.00011083984375	0.168548583984375
70	0.1708984375	8.32054197899265	-0.000109954833984375	0.17095947265625
71	0.17333984375	8.34494197893105	-0.00011114501953125	0.17340087890625
72	0.17578125	8.36934197886944	-0.00010894775390625	0.175872802734375
73	0.17822265625	8.39374197880784	-0.000111541748046875	0.17828369140625
74	0.1806640625	8.41814197874623	-0.000108551025390625	0.180694580078125
75	0.18310546875	8.44254197868463	-0.000110382080078125	0.18316650390625
76	0.185546875	8.46694197862303	-0.0001083984375	0.185577392578125
77	0.18798828125	8.49134197856142	-0.000109588623046875	0.18804931640625
78	0.1904296875	8.51574197849982	-0.0001094970703125	0.190460205078125
79	0.19287109375	8.54014197843821	-0.000108551025390625	0.19293212890625
80	0.1953125	8.56454197837661	-0.000109710693359375	0.19537353515625
81	0.19775390625	8.58894197831501	-0.000107635498046875	0.197784423828125
82	0.2001953125	8.6133419782534	-0.000110321044921875	0.20025634765625
83	0.20263671875	8.6377419781918	-0.000107452392578125	0.202667236328125
84	0.205078125	8.66214197813019	-0.0001094970703125	0.205169677734375
85	0.20751953125	8.68654197806859	-0.000107666015625	0.207611083984375
86	0.2099609375	8.71094197800699	-0.000108978271484375	0.21002197265625
87	0.21240234375	8.73534197794538	-0.000108917236328125	0.212432861328125
88	0.21484375	8.75974197788378	-0.000108062744140625	0.214874267578125
89	0.21728515625	8.78414197782217	-0.000109283447265625	0.217315673828125
90	0.2197265625	8.80854197776057	-0.000107208251953125	0.219818115234375
91	0.22216796875	8.83294197769897	-0.0001099853515625	0.2222900390625
92	0.224609375	8.85734197763736	-0.000107025146484375	0.224609375
93	0.22705078125	8.88174197757576	-0.000109100341796875	0.22705078125
94	0.2294921875	8.90614197751415	-0.000107147216796875	0.22955322265625
95	0.23193359375	8.93054197745255	-0.000108245849609375	0.231964111328125
96	0.234375	8.95494197739094	-0.00010809326171875	0.234405517578125
97	0.23681640625	8.97934197732934	-0.000107177734375	0.236907958984375
98	0.2392578125	9.00374197726774	-0.0001082763671875	0.23931884765625
99	0.24169921875	9.02814197720613	-0.000106048583984375	0.24169921875
100	0.244140625	9.05254197714453	-0.00010858154296875	0.2442626953125
101	0.24658203125	9.07694197708292	-0.000105499267578125	0.246612548828125
102	0.2490234375	9.10134197702132	-0.000107391357421875	0.249053955078125
103	0.25146484375	9.12574197695972	-0.000105377197265625	0.251495361328125
104	0.25390625	9.15014197689811	-0.000106536865234375	0.25396728515625
105	0.25634765625	9.17454197683651	-0.00010626220703125	0.256378173828125
106	0.2587890625	9.1989419767749	-0.000105316162109375	0.258819580078125
107	0.26123046875	9.2233419767133	-0.00010638427734375	0.26129150390625
108	0.263671875	9.2477419766517	-0.000104156494140625	0.263702392578125
109	0.26611328125	9.27214197659009	-0.000106719970703125	0.26617431640625
110	0.2685546875	9.29654197652849	-0.000103729248046875	0.268524169921875
111	0.27099609375	9.32094197646688	-0.000105712890625	0.271026611328125
112	0.2734375	9.34534197640528	-0.000103759765625	0.273468017578125
113	0.27587890625	9.36974197634368	-0.000105010986328125	0.275970458984375
114	0.2783203125	9.39414197628207	-0.000104949951171875	0.2783203125
115	0.28076171875	9.41854197622047	-0.000104156494140625	0.28082275390625
116	0.283203125	9.44294197615886	-0.0001053466796875	0.28326416015625
117	0.28564453125	9.46734197609726	-0.0001033935546875	0.285614013671875
118	0.2880859375	9.49174197603566	-0.000106109619140625	0.288116455078125
119	0.29052734375	9.51614197597405	-0.0001031494140625	0.29052734375
120	0.29296875	9.54054197591245	-0.000105224609375	0.29302978515625
121	0.29541015625	9.56494197585084	-0.000103363037109375	0.29547119140625
122	0.2978515625	9.58934197578924	-0.000104736328125	0.2978515625
123	0.30029296875	9.61374197572763	-0.00010455322265625	0.30029296875
124	0.302734375	9.63814197566603	-0.000103729248046875	0.302764892578125
125	0.30517578125	9.66254197560443	-0.000104888916015625	0.305206298828125
126	0.3076171875	9.68694197554282	-0.00010284423828125	0.3076171875
127	0.31005859375	9.71134197548122	-0.00010546875	0.310089111328125
128	0.3125	9.73574197541961	-0.000102508544921875	0.3125
129	0.31494140625	9.76014197535801	-0.000104461669921875	0.314971923828125
130	0.3173828125	9.78454197529641	-0.000102264404296875	0.317413330078125
131	0.31982421875	9.8089419752348	-0.000103546142578125	0.31988525390625
132	0.322265625	9.8333419751732	-0.0001031494140625	0.322296142578125
133	0.32470703125	9.85774197511159	-0.000102386474609375	0.324737548828125
134	0.3271484375	9.88214197504999	-0.000103271484375	0.327178955078125
135	0.32958984375	9.90654197498839	-0.000101104736328125	0.32958984375
136	0.33203125	9.93094197492678	-0.000103515625	0.33203125
137	0.33447265625	9.95534197486518	-0.00010052490234375	0.334503173828125
138	0.3369140625	9.97974197480357	-0.0001024169921875	0.336944580078125
139	0.33935546875	10.004141974742	-0.000100311279296875	0.339385986328125
140	0.341796875	10.0285419746804	-0.0001015625	0.341796875
141	0.34423828125	10.0529419746188	-0.000101165771484375	0.34423828125
142	0.3466796875	10.0773419745572	-0.00010052490234375	0.346649169921875
143	0.34912109375	10.1017419744956	-0.000101531982421875	0.3492431640625
144	0.3515625	10.1261419744339	-9.954833984375E-05	0.3515625
145	0.35400390625	10.1505419743723	-0.00010205078125	0.354034423828125
146	0.3564453125	10.1749419743107	-9.9212646484375E-05	0.356536865234375
147	0.35888671875	10.1993419742491	-0.000101104736328125	0.35894775390625
148	0.361328125	10.2237419741875	-9.912109375E-05	0.361328125
149	0.36376953125	10.2481419741259	-0.000100677490234375	0.363861083984375
150	0.3662109375	10.2725419740643	-0.0001002197265625	0.366241455078125
151	0.36865234375	10.2969419740027	-9.9517822265625E-05	0.368682861328125
152	0.37109375	10.3213419739411	-0.0001004638671875	0.37115478515625
153	0.37353515625	10.3457419738795	-9.8663330078125E-05	0.37359619140625
154	0.3759765625	10.3701419738179	-0.000101165771484375	0.376007080078125
155	0.37841796875	10.3945419737563	-9.7991943359375E-05	0.37841796875
156	0.380859375	10.4189419736947	-0.000100128173828125	0.38092041015625
157	0.38330078125	10.4433419736331	-9.771728515625E-05	0.38330078125
158	0.3857421875	10.4677419735715	-9.930419921875E-05	0.38580322265625
159	0.38818359375	10.4921419735099	-9.8785400390625E-05	0.388153076171875
160	0.390625	10.5165419734483	-9.814453125E-05	0.390594482421875
161	0.39306640625	10.5409419733867	-9.869384765625E-05	0.393096923828125
162	0.3955078125	10.5653419733251	-9.6771240234375E-05	0.39569091796875
163	0.39794921875	10.5897419732635	-9.906005859375E-05	0.3980712890625
164	0.400390625	10.6141419732019	-9.5947265625E-05	0.40045166015625
165	0.40283203125	10.6385419731403	-9.7808837890625E-05	0.4029541015625
166	0.4052734375	10.6629419730787	-9.515380859375E-05	0.4053955078125
167	0.40771484375	10.6873419730171	-9.6527099609375E-05	0.4078369140625
168	0.41015625	10.7117419729555	-9.5672607421875E-05	0.4102783203125
169	0.41259765625	10.7361419728938	-9.5062255859375E-05	0.412689208984375
170	0.4150390625	10.7605419728322	-9.55810546875E-05	0.4151611328125
171	0.41748046875	10.7849419727706	-9.3597412109375E-05	0.417572021484375
172	0.419921875	10.809341972709	-9.5794677734375E-05	0.419952392578125
173	0.42236328125	10.8337419726474	-9.246826171875E-05	0.422393798828125
174	0.4248046875	10.8581419725858	-9.43603515625E-05	0.424896240234375
175	0.42724609375	10.8825419725242	-9.1796875E-05	0.427337646484375
176	0.4296875	10.9069419724626	-9.344482421875E-05	0.429779052734375
177	0.43212890625	10.931341972401	-9.246826171875E-05	0.4322509765625
178	0.4345703125	10.9557419723394	-9.2071533203125E-05	0.43463134765625
179	0.43701171875	10.9801419722778	-9.2498779296875E-05	0.4371337890625
180	0.439453125	11.0045419722162	-9.0606689453125E-05	0.43951416015625
181	0.44189453125	11.0289419721546	-9.2803955078125E-05	0.441986083984375
182	0.4443359375	11.053341972093	-8.9569091796875E-05	0.444366455078125
183	0.44677734375	11.0777419720314	-9.1827392578125E-05	0.44683837890625
184	0.44921875	11.1021419719698	-8.917236328125E-05	0.44927978515625
185	0.45166015625	11.1265419719082	-9.0850830078125E-05	0.45172119140625
186	0.4541015625	11.1509419718466	-8.9691162109375E-05	0.45416259765625
187	0.45654296875	11.175341971785	-8.92333984375E-05	0.45654296875
188	0.458984375	11.1997419717234	-8.941650390625E-05	0.45904541015625
189	0.46142578125	11.2241419716618	-8.7677001953125E-05	0.46148681640625
190	0.4638671875	11.2485419716002	-8.97216796875E-05	0.463958740234375
191	0.46630859375	11.2729419715386	-8.6639404296875E-05	0.466400146484375
192	0.46875	11.297341971477	-8.8623046875E-05	0.468841552734375
193	0.47119140625	11.3217419714153	-8.5601806640625E-05	0.47125244140625
194	0.4736328125	11.3461419713537	-8.697509765625E-05	0.4736328125
195	0.47607421875	11.3705419712921	-8.5784912109375E-05	0.47613525390625
196	0.478515625	11.3949419712305	-8.5174560546875E-05	0.478546142578125
197	0.48095703125	11.4193419711689	-8.4991455078125E-05	0.48101806640625
198	0.4833984375	11.4437419711073	-8.319091796875E-05	0.48345947265625
199	0.48583984375	11.4681419710457	-8.4716796875E-05	0.485809326171875
200	0.48828125	11.4925419709841	-8.14208984375E-05	0.488311767578125
201	0.49072265625	11.5169419709225	-8.2916259765625E-05	0.490753173828125
202	0.4931640625	11.5413419708609	-7.977294921875E-05	0.493194580078125
203	0.49560546875	11.5657419707993	-8.111572265625E-05	0.495635986328125
204	0.498046875	11.5901419707377	-7.9498291015625E-05	0.498077392578125
205	0.50048828125	11.6145419706761	-7.8857421875E-05	0.50048828125
206	0.5029296875	11.6389419706145	-7.8521728515625E-05	0.502960205078125
207	0.50537109375	11.6633419705529	-7.635498046875E-05	0.50537109375
208	0.5078125	11.6877419704913	-7.794189453125E-05	0.507843017578125
209	0.51025390625	11.7121419704297	-7.464599609375E-05	0.51025390625
210	0.5126953125	11.7365419703681	-7.6416015625E-05	0.512725830078125
211	0.51513671875	11.7609419703065	-7.28759765625E-05	0.51513671875
212	0.517578125	11.7853419702449	-7.415771484375E-05	0.51763916015625
213	0.52001953125	11.8097419701833	-7.2357177734375E-05	0.52001953125
214	0.5224609375	11.8341419701217	-7.1807861328125E-05	0.5224609375
215	0.52490234375	11.8585419700601	-7.11669921875E-05	0.524871826171875
216	0.52734375	11.8829419699985	-6.9244384765625E-05	0.527374267578125
217	0.52978515625	11.9073419699369	-7.073974609375E-05	0.52984619140625
218	0.5322265625	11.9317419698752	-6.73828125E-05	0.53228759765625
219	0.53466796875	11.9561419698136	-6.8756103515625E-05	0.53466796875
220	0.537109375	11.980541969752	-6.524658203125E-05	0.537109375
221	0.53955078125	12.0049419696904	-6.658935546875E-05	0.53955078125
222	0.5419921875	12.0293419696288	-6.4453125E-05	0.542022705078125
223	0.54443359375	12.0537419695672	-6.378173828125E-05	0.54443359375
224	0.546875	12.0781419695056	-6.28662109375E-05	0.546875
225	0.54931640625	12.102541969444	-6.0882568359375E-05	0.549285888671875
226	0.5517578125	12.1269419693824	-6.1737060546875E-05	0.5517578125
227	0.55419921875	12.1513419693208	-5.7952880859375E-05	0.55419921875
228	0.556640625	12.1757419692592	-5.908203125E-05	0.556640625
229	0.55908203125	12.2001419691976	-5.5328369140625E-05	0.55908203125
230	0.5615234375	12.224541969136	-5.621337890625E-05	0.56146240234375
231	0.56396484375	12.2489419690744	-5.364990234375E-05	0.56390380859375
232	0.56640625	12.2733419690128	-5.2703857421875E-05	0.56634521484375
233	0.56884765625	12.2977419689512	-5.126953125E-05	0.568756103515625
234	0.5712890625	12.3221419688896	-4.8858642578125E-05	0.571197509765625
235	0.57373046875	12.346541968828	-4.9591064453125E-05	0.57366943359375
236	0.576171875	12.3709419687664	-4.56329345703125E-05	0.576171875
237	0.57861328125	12.3953419687048	-4.63623046875E-05	0.57867431640625
238	0.5810546875	12.4197419686432	-4.23095703125E-05	0.5810546875
239	0.58349609375	12.4441419685816	-4.28375244140625E-05	0.58349609375
240	0.5859375	12.46854196852	-3.975830078125E-05	0.585906982421875
241	0.58837890625	12.4929419684584	-3.8427734375E-05	0.588409423828125
242	0.5908203125	12.5173419683967	-3.7115478515625E-05	0.5908203125
243	0.59326171875	12.5417419683351	-3.4539794921875E-05	0.59326171875
244	0.595703125	12.5661419682735	-3.45916748046875E-05	0.595733642578125
245	0.59814453125	12.5905419682119	-3.0328369140625E-05	0.59808349609375
246	0.6005859375	12.6149419681503	-3.08837890625E-05	0.60052490234375
247	0.60302734375	12.6393419680887	-2.642822265625E-05	0.602996826171875
248	0.60546875	12.6637419680271	-2.67852783203125E-05	0.605438232421875
249	0.60791015625	12.6881419679655	-2.33612060546875E-05	0.60791015625
250	0.6103515625	12.7125419679039	-2.18414306640625E-05	0.61029052734375
251	0.61279296875	12.7369419678423	-1.9915771484375E-05	0.612762451171875
252	0.615234375	12.7613419677807	-1.69708251953125E-05	0.61517333984375
253	0.61767578125	12.7857419677191	-1.62841796875E-05	0.61761474609375
254	0.6201171875	12.8101419676575	-1.17340087890625E-05	0.620086669921875
255	0.62255859375	12.8345419675959	-1.1737060546875E-05	0.62255859375
256	0.625	12.8589419675343	-6.70166015625E-06	0.62493896484375
257	0.62744140625	12.8833419674727	-6.40869140625E-06	0.62738037109375
258	0.6298828125	12.9077419674111	-2.3712158203125E-06	0.629791259765625
259	0.63232421875	12.9321419673495	-1.97753906250001E-07	0.63226318359375
260	0.634765625	12.9565419672879	2.6702880859375E-06	0.63470458984375
261	0.63720703125	12.9809419672263	6.3751220703125E-06	0.63580322265625
262	0.6396484375	13.0053419671647	7.4371337890625E-06	0.639404296875
263	0.64208984375	13.0297419671031	1.29852294921875E-05	0.641815185546875
264	0.64453125	13.0541419670415	1.38153076171875E-05	0.644134521484375
265	0.64697265625	13.0785419669799	1.9708251953125E-05	0.646514892578125
266	0.6494140625	13.1029419669183	2.0782470703125E-05	0.64874267578125
267	0.65185546875	13.1273419668566	2.58270263671875E-05	0.6512451171875
268	0.654296875	13.151741966795	2.894287109375E-05	0.6534423828125
269	0.65673828125	13.1761419667334	3.28369140625E-05	0.655914306640625
270	0.6591796875	13.2005419666718	3.72772216796875E-05	0.659027099609375
271	0.66162109375	13.2249419666102	3.96759033203125E-05	0.66143798828125
272	0.6640625	13.2493419665486	4.58099365234375E-05	0.663909912109375
273	0.66650390625	13.273741966487	4.7943115234375E-05	0.666290283203125
274	0.6689453125	13.2981419664254	5.4901123046875E-05	0.66876220703125
275	0.67138671875	13.3225419663638	5.70068359375E-05	0.671142578125
276	0.673828125	13.3469419663022	6.3140869140625E-05	0.673583984375
277	0.67626953125	13.3713419662406	6.7047119140625E-05	0.675994873046875
278	0.6787109375	13.395741966179	7.196044921875E-05	0.678466796875
279	0.68115234375	13.4201419661174	7.7117919921875E-05	0.680908203125
280	0.68359375	13.4445419660558	8.0902099609375E-05	0.683349609375
281	0.68603515625	13.4689419659942	8.7982177734375E-05	0.685760498046875
282	0.6884765625	13.4933419659326	9.130859375E-05	0.688201904296875
283	0.69091796875	13.517741965871	9.92431640625E-05	0.69061279296875
284	0.693359375	13.5421419658094	0.00010247802734375	0.693023681640625
285	0.69580078125	13.5665419657478	0.000110076904296875	0.695465087890625
286	0.6982421875	13.5909419656862	0.000115478515625	0.697906494140625
287	0.70068359375	13.6153419656246	0.000122100830078125	0.700347900390625
288	0.703125	13.639741965563	0.000129119873046875	0.702728271484375
289	0.70556640625	13.6641419655014	0.0001348876953125	0.705108642578125
290	0.7080078125	13.6885419654398	0.0001431884765625	0.707550048828125
291	0.71044921875	13.7129419653781	0.000149017333984375	0.71002197265625
292	0.712890625	13.7373419653165	0.0001588134765625	0.71234130859375
293	0.71533203125	13.7617419652549	0.00016455078125	0.71484375
294	0.7177734375	13.7861419651933	0.000174224853515625	0.71722412109375
295	0.72021484375	13.8105419651317	0.000181488037109375	0.71966552734375
296	0.72265625	13.8349419650701	0.000190765380859375	0.72216796875
297	0.72509765625	13.8593419650085	0.000199798583984375	0.724456787109375
298	0.7275390625	13.8837419649469	0.00020806884765625	0.72686767578125
299	0.72998046875	13.9081419648853	0.00021868896484375	0.72930908203125
300	0.732421875	13.9325419648237	0.000226806640625	0.731689453125
301	0.73486328125	13.9569419647621	0.000238983154296875	0.734100341796875
302	0.7373046875	13.9813419647005	0.00024774169921875	0.736541748046875
303	0.73974609375	14.0057419646389	0.000259674072265625	0.738983154296875
304	0.7421875	14.0301419645773	0.000270355224609375	0.741363525390625
305	0.74462890625	14.0545419645157	0.000282012939453125	0.7437744140625
306	0.7470703125	14.0789419644541	0.000293670654296875	0.7462158203125
307	0.74951171875	14.1033419643925	0.000305419921875	0.748626708984375
308	0.751953125	14.1277419643309	0.000319091796875	0.751953125
309	0.75439453125	14.1521419642693	0.00033099365234375	0.75408935546875
310	0.7568359375	14.1765419642077	0.0003458251953125	0.7562255859375
311	0.75927734375	14.2009419641461	0.000358306884765625	0.75836181640625
312	0.76171875	14.2253419640845	0.000373748779296875	0.76141357421875
313	0.76416015625	14.2497419640229	0.00038726806640625	0.7635498046875
314	0.7666015625	14.2741419639613	0.00040289306640625	0.7659912109375
315	0.76904296875	14.2985419638997	0.0004188232421875	0.76812744140625
316	0.771484375	14.322941963838	0.0004345703125	0.77056884765625
317	0.77392578125	14.3473419637764	0.00045147705078125	0.772705078125
318	0.7763671875	14.3717419637148	0.000467926025390625	0.77545166015625
319	0.77880859375	14.3961419636532	0.000486480712890625	0.7781982421875
320	0.78125	14.4205419635916	0.000504150390625	0.78094482421875
321	0.78369140625	14.44494196353	0.00052398681640625	0.782470703125
322	0.7861328125	14.4693419634684	0.0005426025390625	0.78582763671875
323	0.78857421875	14.4937419634068	0.00056304931640625	0.78765869140625
324	0.791015625	14.5181419633452	0.00058258056640625	0.7904052734375
325	0.79345703125	14.5425419632836	0.00060394287109375	0.79254150390625
326	0.7958984375	14.566941963222	0.000625	0.79498291015625
327	0.79833984375	14.5913419631604	0.00064788818359375	0.7977294921875
328	0.80078125	14.6157419630988	0.0006707763671875	0.80047607421875
329	0.80322265625	14.6401419630372	0.000693359375	0.802001953125
330	0.8056640625	14.6645419629756	0.00071746826171875	0.8050537109375
331	0.80810546875	14.688941962914	0.0007421875	0.806884765625
332	0.810546875	14.7133419628524	0.000767822265625	0.80963134765625
333	0.81298828125	14.7377419627908	0.00079315185546875	0.81207275390625
334	0.8154296875	14.7621419627292	0.0008203125	0.81451416015625
335	0.81787109375	14.7865419626676	0.00084625244140625	0.81756591796875
336	0.8203125	14.810941962606	0.00087493896484375	0.8197021484375
337	0.82275390625	14.8353419625444	0.0009033203125	0.82183837890625
338	0.8251953125	14.8597419624828	0.0009326171875	0.8245849609375
339	0.82763671875	14.8841419624212	0.0009625244140625	0.82733154296875
340	0.830078125	14.9085419623595	0.00099273681640625	0.8294677734375
341	0.83251953125	14.9329419622979	0.0010247802734375	0.83221435546875
342	0.8349609375	14.9573419622363	0.001055908203125	0.83404541015625
343	0.83740234375	14.9817419621747	0.00108917236328125	0.836181640625
344	0.83984375	15.0061419621131	0.0011212158203125	0.838623046875
345	0.84228515625	15.0305419620515	0.0011572265625	0.84136962890625
346	0.8447265625	15.0549419619899	0.0011907958984375	0.84381103515625
347	0.84716796875	15.0793419619283	0.00122802734375	0.84686279296875
348	0.849609375	15.1037419618667	0.00126373291015625	0.84869384765625
349	0.85205078125	15.1281419618051	0.00130126953125	0.85113525390625
350	0.8544921875	15.1525419617435	0.00133941650390625	0.8538818359375
351	0.85693359375	15.1769419616819	0.00137786865234375	0.8563232421875
352	0.859375	15.2013419616203	0.00141876220703125	0.85845947265625
353	0.86181640625	15.2257419615587	0.00145721435546875	0.8612060546875
354	0.8642578125	15.2501419614971	0.00150054931640625	0.86334228515625
355	0.86669921875	15.2745419614355	0.00154022216796875	0.86578369140625
356	0.869140625	15.2989419613739	0.00158447265625	0.86883544921875
357	0.87158203125	15.3233419613123	0.00162628173828125	0.8709716796875
358	0.8740234375	15.3477419612507	0.00167083740234375	0.8734130859375
359	0.87646484375	15.3721419611891	0.00171600341796875	0.875244140625
360	0.87890625	15.3965419611275	0.0017608642578125	0.87799072265625
361	0.88134765625	15.4209419610659	0.0018084716796875	0.8807373046875
362	0.8837890625	15.4453419610043	0.0018536376953125	0.882568359375
363	0.88623046875	15.4697419609427	0.00190338134765625	0.8856201171875
364	0.888671875	15.4941419608811	0.00194915771484375	0.88775634765625
365	0.89111328125	15.5185419608194	0.00200164794921875	0.89019775390625
366	0.8935546875	15.5429419607578	0.002049560546875	0.892333984375
367	0.89599609375	15.5673419606962	0.0021014404296875	0.894775390625
368	0.8984375	15.5917419606346	0.0021533203125	0.8978271484375
369	0.90087890625	15.616141960573	0.0022052001953125	0.89996337890625
370	0.9033203125	15.6405419605114	0.00226043701171875	0.9027099609375
371	0.90576171875	15.6649419604498	0.00231170654296875	0.90484619140625
372	0.908203125	15.6893419603882	0.00236907958984375	0.9075927734375
373	0.91064453125	15.7137419603266	0.00242156982421875	0.909423828125
374	0.9130859375	15.738141960265	0.00248138427734375	0.91217041015625
375	0.91552734375	15.7625419602034	0.00253570556640625	0.91461181640625
376	0.91796875	15.7869419601418	0.00259490966796875	0.91766357421875
377	0.92041015625	15.8113419600802	0.0026531982421875	0.9197998046875
378	0.9228515625	15.8357419600186	0.00271270751953125	0.9222412109375
379	0.92529296875	15.860141959957	0.002774658203125	0.92437744140625
380	0.927734375	15.8845419598954	0.0028326416015625	0.926513671875
381	0.93017578125	15.9089419598338	0.00289794921875	0.92926025390625
382	0.9326171875	15.9333419597722	0.00295654296875	0.9320068359375
383	0.93505859375	15.9577419597106	0.00302337646484375	0.9344482421875
384	0.9375	15.982141959649	0.0030841064453125	0.9368896484375
385	0.93994140625	16.0065419595874	0.003150634765625	0.9393310546875
386	0.9423828125	16.0309419595258	0.00321502685546875	0.941162109375
387	0.94482421875	16.0553419594642	0.00328033447265625	0.9442138671875
388	0.947265625	16.0797419594026	0.00334747314453125	0.94635009765625
389	0.94970703125	16.104141959341	0.00341064453125	0.9490966796875
390	0.9521484375	16.1285419592793	0.0034808349609375	0.950927734375
391	0.95458984375	16.1529419592177	0.003543701171875	0.95367431640625
392	0.95703125	16.1773419591561	0.003614501953125	0.955810546875
393	0.95947265625	16.2017419590945	0.00367706298828125	0.95916748046875
394	0.9619140625	16.2261419590329	0.0037457275390625	0.96099853515625
395	0.96435546875	16.2505419589713	0.00381072998046875	0.9637451171875
396	0.966796875	16.2749419589097	0.003875732421875	0.9661865234375
397	0.96923828125	16.2993419588481	0.0039410400390625	0.9686279296875
398	0.9716796875	16.3237419587865	0.00400146484375	0.9710693359375
399	0.97412109375	16.3481419587249	0.004066162109375	0.97320556640625
400	0.9765625	16.3725419586633	0.0041229248046875	0.97564697265625
401	0.97900390625	16.3969419586017	0.00418487548828125	0.97808837890625
402	0.9814453125	16.4213419585401	0.00423736572265625	0.9808349609375
403	0.98388671875	16.4457419584785	0.004293212890625	0.9832763671875
404	0.986328125	16.4701419584169	0.00434417724609375	0.985107421875
405	0.98876953125	16.4945419583553	0.00439422607421875	0.98785400390625
406	0.9912109375	16.5189419582937	0.0044427490234375	0.9912109375
407	0.99365234375	16.5433419582321	0.00448699951171875	0.9930419921875
408	0.99609375	16.5677419581705	0.004532470703125	0.99517822265625
409	0.99853515625	16.5921419581089	0.00457244873046875	0.997314453125
410	1.0009765625	16.6165419580473	0.00461517333984375	0.999755859375
411	1.00341796875	16.6409419579857	0.0046514892578125	1.00250244140625
412	1.005859375	16.6653419579241	0.0046893310546875	1.004638671875
413	1.00830078125	16.6897419578625	0.00472442626953125	1.007080078125
414	1.0107421875	16.7141419578008	0.0047589111328125	1.00982666015625
415	1.01318359375	16.7385419577392	0.00479217529296875	1.01226806640625
416	1.015625	16.7629419576776	0.00482269287109375	1.0150146484375
417	1.01806640625	16.787341957616	0.004854736328125	1.0162353515625
418	1.0205078125	16.8117419575544	0.0048828125	1.0198974609375
419	1.02294921875	16.8361419574928	0.004913330078125	1.02142333984375
420	1.025390625	16.8605419574312	0.00493927001953125	1.0247802734375
421	1.02783203125	16.8849419573696	0.00496673583984375	1.02752685546875
422	1.0302734375	16.909341957308	0.00499267578125	1.02935791015625
423	1.03271484375	16.9337419572464	0.00501800537109375	1.031494140625
424	1.03515625	16.9581419571848	0.005042724609375	1.03424072265625
425	1.03759765625	16.9825419571232	0.00506591796875	1.036376953125
426	1.0400390625	17.0069419570616	0.00509033203125	1.038818359375
427	1.04248046875	17.031341957	0.0051116943359375	1.041259765625
428	1.044921875	17.0557419569384	0.0051348876953125	1.04400634765625
429	1.04736328125	17.0801419568768	0.00515533447265625	1.04644775390625
430	1.0498046875	17.1045419568152	0.005177001953125	1.048583984375
431	1.05224609375	17.1289419567536	0.0051971435546875	1.05072021484375
432	1.0546875	17.153341956692	0.00521759033203125	1.05377197265625
433	1.05712890625	17.1777419566304	0.0052374267578125	1.055908203125
434	1.0595703125	17.2021419565688	0.00525634765625	1.058349609375
435	1.06201171875	17.2265419565072	0.00527587890625	1.06170654296875
436	1.064453125	17.2509419564456	0.0052935791015625	1.06353759765625
437	1.06689453125	17.275341956384	0.0053125	1.065673828125
438	1.0693359375	17.2997419563224	0.00532958984375	1.06842041015625
439	1.07177734375	17.3241419562607	0.00534759521484375	1.0711669921875
440	1.07421875	17.3485419561991	0.0053643798828125	1.07330322265625
441	1.07666015625	17.3729419561375	0.0053814697265625	1.0760498046875
442	1.0791015625	17.3973419560759	0.00539825439453125	1.07818603515625
443	1.08154296875	17.4217419560143	0.00541412353515625	1.080322265625
444	1.083984375	17.4461419559527	0.00543060302734375	1.082763671875
445	1.08642578125	17.4705419558911	0.00544586181640625	1.08489990234375
446	1.0888671875	17.4949419558295	0.00546234130859375	1.08795166015625
447	1.09130859375	17.5193419557679	0.0054766845703125	1.090087890625
448	1.09375	17.5437419557063	0.00549224853515625	1.092529296875
449	1.09619140625	17.5681419556447	0.00550689697265625	1.094970703125
450	1.0986328125	17.5925419555831	0.0055218505859375	1.09771728515625
451	1.10107421875	17.6169419555215	0.00553619384765625	1.10015869140625
452	1.103515625	17.6413419554599	0.00555023193359375	1.1029052734375
453	1.10595703125	17.6657419553983	0.0055645751953125	1.104736328125
454	1.1083984375	17.6901419553367	0.0055780029296875	1.10748291015625
455	1.11083984375	17.7145419552751	0.00559234619140625	1.109619140625
456	1.11328125	17.7389419552135	0.00560516357421875	1.11236572265625
457	1.11572265625	17.7633419551519	0.005618896484375	1.11480712890625
458	1.1181640625	17.7877419550903	0.0056317138671875	1.116943359375
459	1.12060546875	17.8121419550287	0.0056451416015625	1.11968994140625
460	1.123046875	17.8365419549671	0.00565765380859375	1.121826171875
461	1.12548828125	17.8609419549055	0.00567047119140625	1.12457275390625
462	1.1279296875	17.8853419548439	0.00568328857421875	1.126708984375
463	1.13037109375	17.9097419547822	0.00569549560546875	1.129150390625
464	1.1328125	17.9341419547206	0.0057080078125	1.1322021484375
465	1.13525390625	17.958541954659	0.0057196044921875	1.1346435546875
466	1.1376953125	17.9829419545974	0.00573211669921875	1.136474609375
467	1.14013671875	18.0073419545358	0.00574371337890625	1.13922119140625
468	1.142578125	18.0317419544742	0.005755615234375	1.1419677734375
469	1.14501953125	18.0561419544126	0.0057672119140625	1.14410400390625
470	1.1474609375	18.080541954351	0.00577880859375	1.14654541015625
471	1.14990234375	18.1049419542894	0.00579010009765625	1.1492919921875
472	1.15234375	18.1293419542278	0.0058013916015625	1.15142822265625
473	1.15478515625	18.1537419541662	0.00581268310546875	1.15325927734375
474	1.1572265625	18.1781419541046	0.00582366943359375	1.15570068359375
475	1.15966796875	18.202541954043	0.0058349609375	1.158447265625
476	1.162109375	18.2269419539814	0.0058453369140625	1.16058349609375
477	1.16455078125	18.2513419539198	0.0058563232421875	1.1639404296875
478	1.1669921875	18.2757419538582	0.00586700439453125	1.16546630859375
479	1.16943359375	18.3001419537966	0.00587738037109375	1.168212890625
480	1.171875	18.324541953735	0.0058880615234375	1.170654296875
481	1.17431640625	18.3489419536734	0.0058984375	1.17340087890625
482	1.1767578125	18.3733419536118	0.00590911865234375	1.175537109375
483	1.17919921875	18.3977419535502	0.00591888427734375	1.17828369140625
484	1.181640625	18.4221419534886	0.00592926025390625	1.180419921875
485	1.18408203125	18.446541953427	0.0059393310546875	1.18316650390625
486	1.1865234375	18.4709419533654	0.00594940185546875	1.18560791015625
487	1.18896484375	18.4953419533038	0.00595916748046875	1.187744140625
488	1.19140625	18.5197419532421	0.00596893310546875	1.1907958984375
489	1.19384765625	18.5441419531805	0.00597900390625	1.192626953125
490	1.1962890625	18.5685419531189	0.00598846435546875	1.195068359375
491	1.19873046875	18.5929419530573	0.00599822998046875	1.19781494140625
492	1.201171875	18.6173419529957	0.00600738525390625	1.20025634765625
493	1.19873046875	18.6417419529341	0.00599395751953125	1.19781494140625
494	1.1962890625	18.6661419528725	0.0059796142578125	1.195068359375
495	1.19384765625	18.6905419528109	0.00596588134765625	1.192626953125
496	1.19140625	18.7149419527493	0.0059515380859375	1.19049072265625
497	1.18896484375	18.7393419526877	0.0059368896484375	1.18804931640625
498	1.1865234375	18.7637419526261	0.00592254638671875	1.1859130859375
499	1.18408203125	18.7881419525645	0.00590789794921875	1.18316650390625
500	1.181640625	18.8125419525029	0.00589324951171875	1.18133544921875
501	1.17919921875	18.8369419524413	0.00587799072265625	1.1785888671875
502	1.1767578125	18.8613419523797	0.005863037109375	1.175537109375
503	1.17431640625	18.8857419523181	0.00584747314453125	1.17279052734375
504	1.171875	18.9101419522565	0.00583221435546875	1.170654296875
505	1.16943359375	18.9345419521949	0.0058160400390625	1.16851806640625
506	1.1669921875	18.9589419521333	0.0058001708984375	1.16607666015625
507	1.16455078125	18.9833419520717	0.0057843017578125	1.1627197265625
508	1.162109375	19.0077419520101	0.005767822265625	1.160888671875
509	1.15966796875	19.0321419519485	0.00575164794921875	1.1590576171875
510	1.1572265625	19.0565419518869	0.0057342529296875	1.1566162109375
511	1.15478515625	19.0809419518253	0.00571746826171875	1.15386962890625
512	1.15234375	19.1053419517636	0.0057000732421875	1.15081787109375
513	1.14990234375	19.129741951702	0.00568267822265625	1.14898681640625
514	1.1474609375	19.1541419516404	0.0056646728515625	1.14654541015625
515	1.14501953125	19.1785419515788	0.0056463623046875	1.14410400390625
516	1.142578125	19.2029419515172	0.00562835693359375	1.141357421875
517	1.14013671875	19.2273419514556	0.00560943603515625	1.13922119140625
518	1.1376953125	19.251741951394	0.0055908203125	1.136474609375
519	1.13525390625	19.2761419513324	0.00557098388671875	1.13372802734375
520	1.1328125	19.3005419512708	0.00555145263671875	1.13189697265625
521	1.13037109375	19.3249419512092	0.00553131103515625	1.129150390625
522	1.1279296875	19.3493419511476	0.0055108642578125	1.126708984375
523	1.12548828125	19.373741951086	0.00548980712890625	1.12457275390625
524	1.123046875	19.3981419510244	0.00546844482421875	1.121826171875
525	1.12060546875	19.4225419509628	0.00544708251953125	1.11968994140625
526	1.1181640625	19.4469419509012	0.0054248046875	1.116943359375
527	1.11572265625	19.4713419508396	0.0054022216796875	1.11419677734375
528	1.11328125	19.495741950778	0.00537872314453125	1.112060546875
529	1.11083984375	19.5201419507164	0.005355224609375	1.11053466796875
530	1.1083984375	19.5445419506548	0.00533050537109375	1.10748291015625
531	1.10595703125	19.5689419505932	0.00530609130859375	1.104736328125
532	1.103515625	19.5933419505316	0.0052801513671875	1.1029052734375
533	1.10107421875	19.61774195047	0.00525390625	1.099853515625
534	1.0986328125	19.6421419504084	0.00522705078125	1.09710693359375
535	1.09619140625	19.6665419503468	0.005198974609375	1.0955810546875
536	1.09375	19.6909419502852	0.0051708984375	1.09283447265625
537	1.09130859375	19.7153419502235	0.00514068603515625	1.090087890625
538	1.0888671875	19.7397419501619	0.005111083984375	1.087646484375
539	1.08642578125	19.7641419501003	0.00507904052734375	1.085205078125
540	1.083984375	19.7885419500387	0.0050469970703125	1.0833740234375
541	1.08154296875	19.8129419499771	0.0050128173828125	1.0809326171875
542	1.0791015625	19.8373419499155	0.00497802734375	1.0784912109375
543	1.07666015625	19.8617419498539	0.00494171142578125	1.075439453125
544	1.07421875	19.8861419497923	0.004903564453125	1.07330322265625
545	1.07177734375	19.9105419497307	0.00486480712890625	1.07025146484375
546	1.0693359375	19.9349419496691	0.0048223876953125	1.068115234375
547	1.06689453125	19.9593419496075	0.00477996826171875	1.06597900390625
548	1.064453125	19.9837419495459	0.00473358154296875	1.0638427734375
549	1.06201171875	20.0081419494843	0.0046868896484375	1.060791015625
550	1.0595703125	20.0325419494227	0.00463592529296875	1.05865478515625
551	1.05712890625	20.0569419493611	0.00458282470703125	1.0565185546875
552	1.0546875	20.0813419492995	0.00452728271484375	1.05377197265625
553	1.05224609375	20.1057419492379	0.0044671630859375	1.0516357421875
554	1.0498046875	20.1301419491763	0.004405517578125	1.04888916015625
555	1.04736328125	20.1545419491147	0.0043377685546875	1.04583740234375
556	1.044921875	20.1789419490531	0.00426971435546875	1.0443115234375
557	1.04248046875	20.2033419489915	0.00419525146484375	1.04156494140625
558	1.0400390625	20.2277419489299	0.0041204833984375	1.038818359375
559	1.03759765625	20.2521419488683	0.0040399169921875	1.03668212890625
560	1.03515625	20.2765419488067	0.00395843505859375	1.033935546875
561	1.03271484375	20.300941948745	0.003875732421875	1.031494140625
562	1.0302734375	20.3253419486834	0.00378997802734375	1.029052734375
563	1.02783203125	20.3497419486218	0.00370574951171875	1.02691650390625
564	1.025390625	20.3741419485602	0.0036175537109375	1.0247802734375
565	1.02294921875	20.3985419484986	0.0035345458984375	1.0223388671875
566	1.0205078125	20.422941948437	0.00344757080078125	1.01959228515625
567	1.01806640625	20.4473419483754	0.00336456298828125	1.01776123046875
568	1.015625	20.4717419483138	0.00327972412109375	1.01470947265625
569	1.01318359375	20.4961419482522	0.0031976318359375	1.01226806640625
570	1.0107421875	20.5205419481906	0.00311737060546875	1.00982666015625
571	1.00830078125	20.544941948129	0.003037109375	1.00738525390625
572	1.005859375	20.5693419480674	0.002960205078125	1.00494384765625
573	1.00341796875	20.5937419480058	0.0028814697265625	1.00189208984375
574	1.0009765625	20.6181419479442	0.00280792236328125	0.999755859375
575	0.99853515625	20.6425419478826	0.00273223876953125	0.9979248046875
576	0.99609375	20.666941947821	0.0026617431640625	0.9954833984375
577	0.99365234375	20.6913419477594	0.00259002685546875	0.9930419921875
578	0.9912109375	20.7157419476978	0.0025213623046875	0.9906005859375
579	0.98876953125	20.7401419476362	0.00245361328125	0.98785400390625
580	0.986328125	20.7645419475746	0.0023870849609375	0.9857177734375
581	0.98388671875	20.788941947513	0.00232330322265625	0.982666015625
582	0.9814453125	20.8133419474514	0.00225830078125	0.98052978515625
583	0.97900390625	20.8377419473898	0.0021978759765625	0.977783203125
584	0.9765625	20.8621419473282	0.00213653564453125	0.975341796875
585	0.97412109375	20.8865419472666	0.00207855224609375	0.972900390625
586	0.9716796875	20.9109419472049	0.00202056884765625	0.9710693359375
587	0.96923828125	20.9353419471433	0.00196441650390625	0.96893310546875
588	0.966796875	20.9597419470817	0.00191070556640625	0.966796875
589	0.96435546875	20.9841419470201	0.0018572998046875	0.9637451171875
590	0.9619140625	21.0085419469585	0.00180633544921875	0.960693359375
591	0.95947265625	21.0329419468969	0.00175445556640625	0.958251953125
592	0.95703125	21.0573419468353	0.00170623779296875	0.95611572265625
593	0.95458984375	21.0817419467737	0.00165771484375	0.95367431640625
594	0.9521484375	21.1061419467121	0.0016119384765625	0.95123291015625
595	0.94970703125	21.1305419466505	0.00156646728515625	0.94879150390625
596	0.947265625	21.1549419465889	0.00152252197265625	0.94635009765625
597	0.94482421875	21.1793419465273	0.0014801025390625	0.9442138671875
598	0.9423828125	21.2037419464657	0.00143798828125	0.9417724609375
599	0.93994140625	21.2281419464041	0.0013983154296875	0.9393310546875
600	0.9375	21.2525419463425	0.00135833740234375	0.93658447265625
601	0.93505859375	21.2769419462809	0.00132080078125	0.9344482421875
602	0.9326171875	21.3013419462193	0.0012835693359375	0.93170166015625
603	0.93017578125	21.3257419461577	0.00124755859375	0.928955078125
604	0.927734375	21.3501419460961	0.00121307373046875	0.926513671875
605	0.92529296875	21.3745419460345	0.00117950439453125	0.92437744140625
606	0.9228515625	21.3989419459729	0.00114715576171875	0.92193603515625
607	0.92041015625	21.4233419459113	0.0011151123046875	0.919189453125
608	0.91796875	21.4477419458497	0.00108428955078125	0.91705322265625
609	0.91552734375	21.4721419457881	0.0010540771484375	0.91461181640625
610	0.9130859375	21.4965419457264	0.00102508544921875	0.91217041015625
611	0.91064453125	21.5209419456648	0.000997314453125	0.90972900390625
612	0.908203125	21.5453419456032	0.00096954345703125	0.906982421875
613	0.90576171875	21.5697419455416	0.000943603515625	0.9051513671875
614	0.9033203125	21.59414194548	0.00091766357421875	0.90240478515625
615	0.90087890625	21.6185419454184	0.0008935546875	0.89996337890625
616	0.8984375	21.6429419453568	0.00086883544921875	0.89752197265625
617	0.89599609375	21.6673419452952	0.0008453369140625	0.89508056640625
618	0.8935546875	21.6917419452336	0.00082305908203125	0.892333984375
619	0.89111328125	21.716141945172	0.00080078125	0.889892578125
620	0.888671875	21.7405419451104	0.000780029296875	0.887451171875
621	0.88623046875	21.7649419450488	0.00075836181640625	0.8856201171875
622	0.8837890625	21.7893419449872	0.0007391357421875	0.882568359375
623	0.88134765625	21.8137419449256	0.000718994140625	0.8807373046875
624	0.87890625	21.838141944864	0.00070068359375	0.877685546875
625	0.87646484375	21.8625419448024	0.00068206787109375	0.87615966796875
626	0.8740234375	21.8869419447408	0.0006640625	0.87371826171875
627	0.87158203125	21.9113419446792	0.00064697265625	0.870361328125
628	0.869140625	21.9357419446176	0.0006292724609375	0.867919921875
629	0.86669921875	21.960141944556	0.000614013671875	0.86578369140625
630	0.8642578125	21.9845419444944	0.000596923828125	0.86334228515625
631	0.86181640625	22.0089419444328	0.00058258056640625	0.86090087890625
632	0.859375	22.0333419443712	0.00056671142578125	0.8587646484375
633	0.85693359375	22.0577419443096	0.00055267333984375	0.85662841796875
634	0.8544921875	22.082141944248	0.00053802490234375	0.85357666015625
635	0.85205078125	22.1065419441863	0.000523681640625	0.8514404296875
636	0.849609375	22.1309419441247	0.0005108642578125	0.84869384765625
637	0.84716796875	22.1553419440631	0.00049664306640625	0.84686279296875
638	0.8447265625	22.1797419440015	0.000485198974609375	0.8441162109375
639	0.84228515625	22.2041419439399	0.0004713134765625	0.84136962890625
640	0.83984375	22.2285419438783	0.000460540771484375	0.83892822265625
641	0.83740234375	22.2529419438167	0.000447509765625	0.836181640625
642	0.8349609375	22.2773419437551	0.000436920166015625	0.83404541015625
643	0.83251953125	22.3017419436935	0.000425048828125	0.8319091796875
644	0.830078125	22.3261419436319	0.000413848876953125	0.82916259765625
645	0.82763671875	22.3505419435703	0.000403900146484375	0.8270263671875
646	0.8251953125	22.3749419435087	0.00039239501953125	0.8245849609375
647	0.82275390625	22.3993419434471	0.000384002685546875	0.821533203125
648	0.8203125	22.4237419433855	0.000371917724609375	0.819091796875
649	0.81787109375	22.4481419433239	0.00036395263671875	0.81695556640625
650	0.8154296875	22.4725419432623	0.000353118896484375	0.81451416015625
651	0.81298828125	22.4969419432007	0.000344940185546875	0.811767578125
652	0.810546875	22.5213419431391	0.000334930419921875	0.80963134765625
653	0.80810546875	22.5457419430775	0.00032598876953125	0.8074951171875
654	0.8056640625	22.5701419430159	0.00031793212890625	0.80413818359375
655	0.80322265625	22.5945419429543	0.000308746337890625	0.8026123046875
656	0.80078125	22.6189419428927	0.000302001953125	0.79986572265625
657	0.79833984375	22.6433419428311	0.0002913818359375	0.797119140625
658	0.7958984375	22.6677419427695	0.000285736083984375	0.79498291015625
659	0.79345703125	22.6921419427078	0.000276214599609375	0.7928466796875
660	0.791015625	22.7165419426462	0.000270050048828125	0.7904052734375
661	0.78857421875	22.7409419425846	0.00026165771484375	0.787353515625
662	0.7861328125	22.765341942523	0.000254241943359375	0.784912109375
663	0.78369140625	22.7897419424614	0.00024798583984375	0.78338623046875
664	0.78125	22.8141419423998	0.000240020751953125	0.7806396484375
665	0.77880859375	22.8385419423382	0.00023443603515625	0.77789306640625
666	0.7763671875	22.8629419422766	0.00022509765625	0.7757568359375
667	0.77392578125	22.887341942215	0.000221038818359375	0.77301025390625
668	0.771484375	22.9117419421534	0.000212646484375	0.77056884765625
669	0.76904296875	22.9361419420918	0.000207794189453125	0.76812744140625
670	0.7666015625	22.9605419420302	0.0002005615234375	0.7659912109375
671	0.76416015625	22.9849419419686	0.000194580078125	0.76324462890625
672	0.76171875	23.009341941907	0.0001888427734375	0.7611083984375
673	0.75927734375	23.0337419418454	0.000182159423828125	0.75836181640625
674	0.7568359375	23.0581419417838	0.000177886962890625	0.75592041015625
675	0.75439453125	23.0825419417222	0.000170166015625	0.7537841796875
676	0.751953125	23.1069419416606	0.000166748046875	0.75103759765625
677	0.74951171875	23.131341941599	0.00015960693359375	0.749298095703125
678	0.7470703125	23.1557419415374	0.000155853271484375	0.74688720703125
679	0.74462890625	23.1801419414758	0.000149322509765625	0.744415283203125
680	0.7421875	23.2045419414142	0.000144378662109375	0.741943359375
681	0.73974609375	23.2289419413526	0.000139862060546875	0.739532470703125
682	0.7373046875	23.253341941291	0.000133758544921875	0.737091064453125
683	0.73486328125	23.2777419412294	0.000130706787109375	0.734649658203125
684	0.732421875	23.3021419411677	0.00012371826171875	0.732208251953125
685	0.72998046875	23.3265419411061	0.0001214599609375	0.72979736328125
686	0.7275390625	23.3509419410445	0.000114776611328125	0.72735595703125
687	0.72509765625	23.3753419409829	0.000112091064453125	0.72491455078125
688	0.72265625	23.3997419409213	0.000106231689453125	0.7225341796875
689	0.72021484375	23.4241419408597	0.000102020263671875	0.720062255859375
690	0.7177734375	23.4485419407981	9.814453125E-05	0.71759033203125
691	0.71533203125	23.4729419407365	9.295654296875E-05	0.71514892578125
692	0.712890625	23.4973419406749	9.04541015625E-05	0.712677001953125
693	0.71044921875	23.5217419406133	8.4197998046875E-05	0.710235595703125
694	0.7080078125	23.5461419405517	8.2672119140625E-05	0.707855224609375
695	0.70556640625	23.5705419404901	7.659912109375E-05	0.70513916015625
696	0.703125	23.5949419404285	7.470703125E-05	0.702850341796875
697	0.70068359375	23.6193419403669	6.9488525390625E-05	0.700408935546875
698	0.6982421875	23.6437419403053	6.6192626953125E-05	0.697967529296875
699	0.69580078125	23.6681419402437	6.317138671875E-05	0.695587158203125
700	0.693359375	23.6925419401821	5.8624267578125E-05	0.693084716796875
701	0.69091796875	23.7169419401205	5.65185546875E-05	0.690704345703125
702	0.6884765625	23.7413419400589	5.0750732421875E-05	0.688262939453125
703	0.68603515625	23.7657419399973	4.9774169921875E-05	0.685821533203125
704	0.68359375	23.7901419399357	4.432373046875E-05	0.683349609375
705	0.68115234375	23.8145419398741	4.3280029296875E-05	0.68096923828125
706	0.6787109375	23.8389419398125	3.841552734375E-05	0.678497314453125
707	0.67626953125	23.8633419397509	3.5736083984375E-05	0.67608642578125
708	0.673828125	23.8877419396892	3.28460693359375E-05	0.673614501953125
709	0.67138671875	23.9121419396276	2.9241943359375E-05	0.671234130859375
710	0.6689453125	23.936541939566	2.7777099609375E-05	0.6688232421875
711	0.66650390625	23.9609419395044	2.2540283203125E-05	0.666351318359375
712	0.6640625	23.9853419394428	2.2393798828125E-05	0.66387939453125
713	0.66162109375	24.0097419393812	1.7340087890625E-05	0.661468505859375
714	0.6591796875	24.0341419393196	1.65283203125E-05	0.6590576171875
715	0.65673828125	24.058541939258	1.21124267578125E-05	0.6566162109375
716	0.654296875	24.0829419391964	9.9822998046875E-06	0.6541748046875
717	0.65185546875	24.1073419391348	7.7301025390625E-06	0.6517333984375
718	0.6494140625	24.1317419390732	4.5318603515625E-06	0.6492919921875
719	0.64697265625	24.1561419390116	3.2562255859375E-06	0.6468505859375
720	0.64453125	24.18054193895	-1.2969970703125E-06	0.644439697265625
721	0.64208984375	24.2049419388884	-1.2640380859375E-06	0.642059326171875
722	0.6396484375	24.2293419388268	-5.755615234375E-06	0.63958740234375
723	0.63720703125	24.2537419387652	-5.4901123046875E-06	0.637176513671875
724	0.634765625	24.2781419387036	-9.66796875E-06	0.634796142578125
725	0.63232421875	24.302541938642	-1.102294921875E-05	0.6324462890625
726	0.6298828125	24.3269419385804	-1.31439208984375E-05	0.629974365234375
727	0.62744140625	24.3513419385188	-1.58203125E-05	0.6275634765625
728	0.625	24.3757419384572	-1.64794921875E-05	0.6251220703125
729	0.62255859375	24.4001419383956	-2.06390380859375E-05	0.622772216796875
730	0.6201171875	24.424541938334	-1.99493408203125E-05	0.620269775390625
731	0.61767578125	24.4489419382724	-2.41424560546875E-05	0.617919921875
732	0.615234375	24.4733419382108	-2.3590087890625E-05	0.615509033203125
733	0.61279296875	24.4977419381491	-2.73468017578125E-05	0.613067626953125
734	0.6103515625	24.5221419380875	-2.8448486328125E-05	0.610687255859375
735	0.60791015625	24.5465419380259	-3.0377197265625E-05	0.60821533203125
736	0.60546875	24.5709419379643	-3.24920654296875E-05	0.60540771484375
737	0.60302734375	24.5953419379027	-3.316650390625E-05	0.602996826171875
738	0.6005859375	24.6197419378411	-3.67950439453125E-05	0.6005859375
739	0.59814453125	24.6441419377795	-3.60565185546875E-05	0.59820556640625
740	0.595703125	24.6685419377179	-3.97918701171875E-05	0.595733642578125
741	0.59326171875	24.6929419376563	-3.88519287109375E-05	0.59326171875
742	0.5908203125	24.7173419375947	-4.2852783203125E-05	0.590911865234375
743	0.58837890625	24.7417419375331	-4.3310546875E-05	0.588409423828125
744	0.5859375	24.7661419374715	-4.50225830078125E-05	0.585906982421875
745	0.58349609375	24.7905419374099	-4.6697998046875E-05	0.58349609375
746	0.5810546875	24.8149419373483	-4.7119140625E-05	0.5810546875
747	0.57861328125	24.8393419372867	-5.0567626953125E-05	0.5784912109375
748	0.576171875	24.8637419372251	-4.9468994140625E-05	0.576080322265625
749	0.57373046875	24.8881419371635	-5.31005859375E-05	0.57366943359375
750	0.5712890625	24.9125419371019	-5.1788330078125E-05	0.571197509765625
751	0.56884765625	24.9369419370403	-5.55419921875E-05	0.56878662109375
752	0.56640625	24.9613419369787	-5.5389404296875E-05	0.566314697265625
753	0.56396484375	24.9857419369171	-5.7342529296875E-05	0.563873291015625
754	0.5615234375	25.0101419368555	-5.8807373046875E-05	0.5615234375
755	0.55908203125	25.0345419367939	-5.9173583984375E-05	0.5589599609375
756	0.556640625	25.0589419367323	-6.2255859375E-05	0.556610107421875
757	0.55419921875	25.0833419366706	-6.0791015625E-05	0.55419921875
758	0.5517578125	25.107741936609	-6.40869140625E-05	0.551727294921875
759	0.54931640625	25.1321419365474	-6.26220703125E-05	0.549285888671875
760	0.546875	25.1565419364858	-6.6131591796875E-05	0.546844482421875
761	0.54443359375	25.1809419364242	-6.5643310546875E-05	0.54449462890625
762	0.5419921875	25.2053419363626	-6.719970703125E-05	0.541961669921875
763	0.53955078125	25.229741936301	-6.8115234375E-05	0.53955078125
764	0.537109375	25.2541419362394	-6.8511962890625E-05	0.537109375
765	0.53466796875	25.2785419361778	-7.11669921875E-05	0.53466796875
766	0.5322265625	25.3029419361162	-6.982421875E-05	0.5322265625
767	0.52978515625	25.3273419360546	-7.2845458984375E-05	0.52972412109375
768	0.52734375	25.351741935993	-7.0892333984375E-05	0.527374267578125
769	0.52490234375	25.3761419359314	-7.4005126953125E-05	0.52484130859375
770	0.5224609375	25.4005419358698	-7.3211669921875E-05	0.5224609375
771	0.52001953125	25.4249419358082	-7.476806640625E-05	0.519927978515625
772	0.517578125	25.4493419357466	-7.513427734375E-05	0.51763916015625
773	0.51513671875	25.473741935685	-7.53173828125E-05	0.515167236328125
774	0.5126953125	25.4981419356234	-7.733154296875E-05	0.512725830078125
775	0.51025390625	25.5225419355618	-7.611083984375E-05	0.510284423828125
776	0.5078125	25.5469419355002	-7.9010009765625E-05	0.5078125
777	0.50537109375	25.5713419354386	-7.6873779296875E-05	0.505401611328125
778	0.5029296875	25.595741935377	-8.0291748046875E-05	0.5029296875
779	0.50048828125	25.6201419353154	-7.9193115234375E-05	0.500457763671875
780	0.498046875	25.6445419352538	-8.0657958984375E-05	0.498077392578125
781	0.49560546875	25.6689419351922	-8.10546875E-05	0.49560546875
782	0.4931640625	25.6933419351305	-8.1451416015625E-05	0.49322509765625
783	0.49072265625	25.7177419350689	-8.349609375E-05	0.49078369140625
784	0.48828125	25.7421419350073	-8.203125E-05	0.48828125
785	0.48583984375	25.7665419349457	-8.48388671875E-05	0.485870361328125
786	0.4833984375	25.7909419348841	-8.26416015625E-05	0.48345947265625
787	0.48095703125	25.8153419348225	-8.599853515625E-05	0.480987548828125
788	0.478515625	25.8397419347609	-8.4564208984375E-05	0.478515625
789	0.47607421875	25.8641419346993	-8.6395263671875E-05	0.476104736328125
790	0.4736328125	25.8885419346377	-8.6334228515625E-05	0.47369384765625
791	0.47119140625	25.9129419345761	-8.6944580078125E-05	0.471221923828125
792	0.46875	25.9373419345145	-8.88671875E-05	0.468841552734375
793	0.46630859375	25.9617419344529	-8.7554931640625E-05	0.46636962890625
794	0.4638671875	25.9861419343913	-8.99658203125E-05	0.463897705078125
795	0.46142578125	26.0105419343297	-8.7646484375E-05	0.461456298828125
796	0.458984375	26.0349419342681	-9.0728759765625E-05	0.45904541015625
797	0.45654296875	26.0593419342065	-8.8897705078125E-05	0.45660400390625
798	0.4541015625	26.0837419341449	-9.051513671875E-05	0.4542236328125
799	0.45166015625	26.1081419340833	-9.014892578125E-05	0.451751708984375
800	0.44921875	26.1325419340217	-9.0606689453125E-05	0.4493408203125
801	0.44677734375	26.1569419339601	-9.2041015625E-05	0.446807861328125
802	0.4443359375	26.1813419338985	-9.051513671875E-05	0.4444580078125
803	0.44189453125	26.2057419338369	-9.2926025390625E-05	0.441986083984375
804	0.439453125	26.2301419337753	-9.063720703125E-05	0.439544677734375
805	0.43701171875	26.2545419337137	-9.375E-05	0.437103271484375
806	0.4345703125	26.278941933652	-9.1522216796875E-05	0.43463134765625
807	0.43212890625	26.3033419335904	-9.3170166015625E-05	0.43218994140625
808	0.4296875	26.3277419335288	-9.2681884765625E-05	0.4298095703125
809	0.42724609375	26.3521419334672	-9.31396484375E-05	0.4273681640625
810	0.4248046875	26.3765419334056	-9.4482421875E-05	0.4249267578125
811	0.42236328125	26.400941933344	-9.307861328125E-05	0.422454833984375
812	0.419921875	26.4253419332824	-9.5367431640625E-05	0.420013427734375
813	0.41748046875	26.4497419332208	-9.320068359375E-05	0.4176025390625
814	0.4150390625	26.4741419331592	-9.6282958984375E-05	0.4151611328125
815	0.41259765625	26.4985419330976	-9.423828125E-05	0.412689208984375
816	0.41015625	26.522941933036	-9.619140625E-05	0.410247802734375
817	0.40771484375	26.5473419329744	-9.53369140625E-05	0.4078369140625
818	0.4052734375	26.5717419329128	-9.6282958984375E-05	0.40545654296875
819	0.40283203125	26.5961419328512	-9.7320556640625E-05	0.4029541015625
820	0.400390625	26.6205419327896	-9.60693359375E-05	0.400482177734375
821	0.39794921875	26.644941932728	-9.8175048828125E-05	0.39801025390625
822	0.3955078125	26.6693419326664	-9.600830078125E-05	0.3956298828125
823	0.39306640625	26.6937419326048	-9.930419921875E-05	0.393157958984375
824	0.390625	26.7181419325432	-9.6832275390625E-05	0.39068603515625
825	0.38818359375	26.7425419324816	-9.8876953125E-05	0.3883056640625
826	0.3857421875	26.76694193242	-9.7930908203125E-05	0.385833740234375
827	0.38330078125	26.7913419323584	-9.89990234375E-05	0.383453369140625
828	0.380859375	26.8157419322968	-9.9639892578125E-05	0.3809814453125
829	0.37841796875	26.8401419322352	-9.8480224609375E-05	0.37847900390625
830	0.3759765625	26.8645419321736	-0.000100494384765625	0.376129150390625
831	0.37353515625	26.8889419321119	-9.814453125E-05	0.373626708984375
832	0.37109375	26.9133419320503	-0.000101226806640625	0.37115478515625
833	0.36865234375	26.9377419319887	-9.8724365234375E-05	0.3687744140625
834	0.3662109375	26.9621419319271	-0.00010064697265625	0.366363525390625
835	0.36376953125	26.9865419318655	-9.9517822265625E-05	0.363922119140625
836	0.361328125	27.0109419318039	-0.00010052490234375	0.361419677734375
837	0.35888671875	27.0353419317423	-0.00010107421875	0.358978271484375
838	0.3564453125	27.0597419316807	-9.991455078125E-05	0.35650634765625
839	0.35400390625	27.0841419316191	-0.000101715087890625	0.354156494140625
840	0.3515625	27.1085419315575	-9.9609375E-05	0.3516845703125
841	0.34912109375	27.1329419314959	-0.00010260009765625	0.349212646484375
842	0.3466796875	27.1573419314343	-9.9945068359375E-05	0.346832275390625
843	0.34423828125	27.1817419313727	-0.000101837158203125	0.3443603515625
844	0.341796875	27.2061419313111	-0.000100616455078125	0.3419189453125
845	0.33935546875	27.2305419312495	-0.000101776123046875	0.339508056640625
846	0.3369140625	27.2549419311879	-0.000102294921875	0.337005615234375
847	0.33447265625	27.2793419311263	-0.0001014404296875	0.3345947265625
848	0.33203125	27.3037419310647	-0.00010302734375	0.332122802734375
849	0.32958984375	27.3281419310031	-0.00010107421875	0.329681396484375
850	0.3271484375	27.3525419309415	-0.00010418701171875	0.327239990234375
851	0.32470703125	27.3769419308799	-0.0001015625	0.3248291015625
852	0.322265625	27.4013419308183	-0.0001038818359375	0.322418212890625
853	0.31982421875	27.4257419307567	-0.00010247802734375	0.3199462890625
854	0.3173828125	27.4501419306951	-0.000103851318359375	0.3175048828125
855	0.31494140625	27.4745419306334	-0.00010418701171875	0.3150634765625
856	0.3125	27.4989419305718	-0.000103485107421875	0.31256103515625
857	0.31005859375	27.5233419305102	-0.0001051025390625	0.310211181640625
858	0.3076171875	27.5477419304486	-0.000103302001953125	0.307769775390625
859	0.30517578125	27.572141930387	-0.000106201171875	0.3052978515625
860	0.302734375	27.5965419303254	-0.000103546142578125	0.30279541015625
861	0.30029296875	27.6209419302638	-0.000105682373046875	0.3004150390625
862	0.2978515625	27.6453419302022	-0.00010406494140625	0.298004150390625
863	0.29541015625	27.6697419301406	-0.000105560302734375	0.2955322265625
864	0.29296875	27.694141930079	-0.00010565185546875	0.293060302734375
865	0.29052734375	27.7185419300174	-0.00010498046875	0.290679931640625
866	0.2880859375	27.7429419299558	-0.00010638427734375	0.2882080078125
867	0.28564453125	27.7673419298942	-0.000104522705078125	0.2857666015625
868	0.283203125	27.7917419298326	-0.000107330322265625	0.2833251953125
869	0.28076171875	27.816141929771	-0.0001043701171875	0.2808837890625
870	0.2783203125	27.8405419297094	-0.00010662841796875	0.278472900390625
871	0.27587890625	27.8649419296478	-0.000104705810546875	0.275970458984375
872	0.2734375	27.8893419295862	-0.000106414794921875	0.27349853515625
873	0.27099609375	27.9137419295246	-0.00010626220703125	0.27105712890625
874	0.2685546875	27.938141929463	-0.000105712890625	0.268646240234375
875	0.26611328125	27.9625419294014	-0.000106903076171875	0.266204833984375
876	0.263671875	27.9869419293398	-0.000105072021484375	0.2637939453125
877	0.26123046875	28.0113419292782	-0.00010784912109375	0.26141357421875
878	0.2587890625	28.0357419292166	-0.000105010986328125	0.2589111328125
879	0.25634765625	28.060141929155	-0.0001072998046875	0.2564697265625
880	0.25390625	28.0845419290933	-0.000105224609375	0.2540283203125
881	0.25146484375	28.1089419290317	-0.00010699462890625	0.251617431640625
882	0.2490234375	28.1333419289701	-0.000106719970703125	0.24920654296875
883	0.24658203125	28.1577419289085	-0.00010638427734375	0.2467041015625
884	0.244140625	28.1821419288469	-0.0001075439453125	0.2442626953125
885	0.24169921875	28.2065419287853	-0.00010589599609375	0.241851806640625
886	0.2392578125	28.2309419287237	-0.000108673095703125	0.23944091796875
887	0.23681640625	28.2553419286621	-0.00010595703125	0.2369384765625
888	0.234375	28.2797419286005	-0.00010833740234375	0.2344970703125
889	0.23193359375	28.3041419285389	-0.000106201171875	0.2320556640625
890	0.2294921875	28.3285419284773	-0.00010821533203125	0.229644775390625
891	0.22705078125	28.3529419284157	-0.000107757568359375	0.2271728515625
892	0.224609375	28.3773419283541	-0.0001075439453125	0.2247314453125
893	0.22216796875	28.4017419282925	-0.000108489990234375	0.2222900390625
894	0.2197265625	28.4261419282309	-0.00010711669921875	0.219879150390625
895	0.21728515625	28.4505419281693	-0.0001097412109375	0.217437744140625
896	0.21484375	28.4749419281077	-0.000107086181640625	0.214935302734375
897	0.21240234375	28.4993419280461	-0.000109527587890625	0.2125244140625
898	0.2099609375	28.5237419279845	-0.00010723876953125	0.21014404296875
899	0.20751953125	28.5481419279229	-0.00010931396484375	0.20770263671875
900	0.205078125	28.5725419278613	-0.00010858154296875	0.2052001953125
901	0.20263671875	28.5969419277997	-0.000108489990234375	0.20281982421875
902	0.2001953125	28.6213419277381	-0.000109222412109375	0.20037841796875
903	0.19775390625	28.6457419276765	-0.00010784912109375	0.1978759765625
904	0.1953125	28.6701419276148	-0.00011029052734375	0.1954345703125
905	0.19287109375	28.6945419275532	-0.000107635498046875	0.193023681640625
906	0.1904296875	28.7189419274916	-0.00010992431640625	0.1905517578125
907	0.18798828125	28.74334192743	-0.00010748291015625	0.188140869140625
908	0.185546875	28.7677419273684	-0.000109710693359375	0.185699462890625
909	0.18310546875	28.7921419273068	-0.000108856201171875	0.18328857421875
910	0.1806640625	28.8165419272452	-0.000109039306640625	0.180816650390625
911	0.17822265625	28.8409419271836	-0.00010955810546875	0.178436279296875
912	0.17578125	28.865341927122	-0.000108367919921875	0.175994873046875
913	0.17333984375	28.8897419270604	-0.0001107177734375	0.17352294921875
914	0.1708984375	28.9141419269988	-0.00010809326171875	0.171051025390625
915	0.16845703125	28.9385419269372	-0.00011053466796875	0.168670654296875
916	0.166015625	28.9629419268756	-0.00010797119140625	0.166168212890625
917	0.16357421875	28.987341926814	-0.0001102294921875	0.1636962890625
918	0.1611328125	29.0117419267524	-0.0001092529296875	0.1612548828125
919	0.15869140625	29.0361419266908	-0.00010955810546875	0.15887451171875
920	0.15625	29.0605419266292	-0.00011004638671875	0.156402587890625
921	0.15380859375	29.0849419265676	-0.000109161376953125	0.15399169921875
922	0.1513671875	29.109341926506	-0.00011138916015625	0.15155029296875
923	0.14892578125	29.1337419264444	-0.00010882568359375	0.1490478515625
924	0.146484375	29.1581419263828	-0.00011126708984375	0.14666748046875
925	0.14404296875	29.1825419263212	-0.00010870361328125	0.144195556640625
926	0.1416015625	29.2069419262596	-0.000111083984375	0.141754150390625
927	0.13916015625	29.231341926198	-0.000109832763671875	0.139312744140625
928	0.13671875	29.2557419261364	-0.0001102294921875	0.13690185546875
929	0.13427734375	29.2801419260747	-0.000110443115234375	0.13446044921875
930	0.1318359375	29.3045419260131	-0.00010955810546875	0.13201904296875
931	0.12939453125	29.3289419259515	-0.000111572265625	0.12957763671875
932	0.126953125	29.3533419258899	-0.000108978271484375	0.127105712890625
933	0.12451171875	29.3777419258283	-0.000111328125	0.124664306640625
934	0.1220703125	29.4021419257667	-0.000108673095703125	0.122283935546875
935	0.11962890625	29.4265419257051	-0.000111114501953125	0.11981201171875
936	0.1171875	29.4509419256435	-0.000109710693359375	0.1173095703125
937	0.11474609375	29.4753419255819	-0.000110260009765625	0.114898681640625
938	0.1123046875	29.4997419255203	-0.000110321044921875	0.11248779296875
939	0.10986328125	29.5241419254587	-0.000109649658203125	0.11004638671875
940	0.107421875	29.5485419253971	-0.000111572265625	0.10760498046875
941	0.10498046875	29.5729419253355	-0.00010919189453125	0.10516357421875
942	0.1025390625	29.5973419252739	-0.000111541748046875	0.102783203125
943	0.10009765625	29.6217419252123	-0.00010888671875	0.10028076171875
944	0.09765625	29.6461419251507	-0.000111419677734375	0.0977783203125
945	0.09521484375	29.6705419250891	-0.000109954833984375	0.095367431640625
946	0.0927734375	29.6949419250275	-0.000110595703125	0.0928955078125
947	0.09033203125	29.7193419249659	-0.000110595703125	0.090606689453125
948	0.087890625	29.7437419249043	-0.00011016845703125	0.088104248046875
949	0.08544921875	29.7681419248427	-0.00011199951171875	0.08563232421875
950	0.0830078125	29.7925419247811	-0.000109832763671875	0.083221435546875
951	0.08056640625	29.8169419247195	-0.000112213134765625	0.080810546875
952	0.078125	29.8413419246579	-0.000109619140625	0.078338623046875
953	0.07568359375	29.8657419245963	-0.000112396240234375	0.0758056640625
954	0.0732421875	29.8901419245346	-0.00011083984375	0.07342529296875
955	0.07080078125	29.914541924473	-0.0001116943359375	0.07098388671875
956	0.068359375	29.9389419244114	-0.000111602783203125	0.06854248046875
957	0.06591796875	29.9633419243498	-0.000111328125	0.06610107421875
958	0.0634765625	29.9877419242882	-0.000113037109375	0.063690185546875
959	0.06103515625	30.0121419242266	-0.00011083984375	0.061279296875
960	0.05859375	30.036541924165	-0.0001131591796875	0.058746337890625
961	0.05615234375	30.0609419241034	-0.000110443115234375	0.056396484375
962	0.0537109375	30.0853419240418	-0.00011309814453125	0.0538330078125
963	0.05126953125	30.1097419239802	-0.00011126708984375	0.05145263671875
964	0.048828125	30.1341419239186	-0.000112152099609375	0.0489654541015625
965	0.04638671875	30.158541923857	-0.0001116943359375	0.0465576171875
966	0.0439453125	30.1829419237954	-0.000111419677734375	0.044122314453125
967	0.04150390625	30.2073419237338	-0.00011285400390625	0.041668701171875
968	0.0390625	30.2317419236722	-0.000110748291015625	0.03922119140625
969	0.03662109375	30.2561419236106	-0.00011285400390625	0.03677978515625
970	0.0341796875	30.280541923549	-0.000110107421875	0.03433837890625
971	0.03173828125	30.3049419234874	-0.000112762451171875	0.031890869140625
972	0.029296875	30.3293419234258	-0.000110748291015625	0.02945556640625
973	0.02685546875	30.3537419233642	-0.00011175537109375	0.027008056640625
974	0.0244140625	30.3781419233026	-0.000111236572265625	0.0245758056640625
975	0.02197265625	30.402541923241	-0.000111175537109375	0.02215576171875
976	0.01953125	30.4269419231794	-0.000112518310546875	0.019708251953125
977	0.01708984375	30.4513419231178	-0.000110595703125	0.0172454833984375
978	0.0146484375	30.4757419230561	-0.00011273193359375	0.014794921875
979	0.01220703125	30.5001419229945	-0.000110137939453125	0.0123809814453125
980	0.009765625	30.5245419229329	-0.00011297607421875	0.00992431640624999
981	0.00732421875	30.5489419228713	-0.000110992431640625	0.00748291015624999
982	0.0048828125	30.5733419228097	-0.000112274169921875	0.0050384521484375
983	0.00244140625	30.5977419227481	-0.000111785888671875	0.002606201171875
984	0	30.6221419226865	-0.000111968994140625	0.00018310546875
985	0.00244140625	30.6465419226249	-0.0001131591796875	0.0025909423828125
986	0.0048828125	30.6709419225633	-0.000111236572265625	0.0050537109375
