Index	Potential applied (V)	Time (s)	WE(1).Current (A)	WE(1).Potential (V)
1	0.00244140625	285.939112278073	-5.0262451171875E-05	0.00260314941406251
2	0.0048828125	285.963512278012	-4.913330078125E-05	0.0050537109375
3	0.00732421875	285.98791227795	-4.9407958984375E-05	0.00749816894531249
4	0.009765625	286.012312277888	-4.91943359375E-05	0.0099029541015625
5	0.01220703125	286.036712277827	-4.84130859375E-05	0.012353515625
6	0.0146484375	286.061112277765	-4.8809814453125E-05	0.0148223876953125
7	0.01708984375	286.085512277704	-4.73602294921875E-05	0.0172576904296875
8	0.01953125	286.109912277642	-4.82757568359375E-05	0.019677734375
9	0.02197265625	286.13431227758	-4.6881103515625E-05	0.022113037109375
10	0.0244140625	286.158712277519	-4.71282958984375E-05	0.024560546875
11	0.02685546875	286.183112277457	-4.65057373046875E-05	0.0270355224609375
12	0.029296875	286.207512277395	-4.617919921875E-05	0.0294769287109375
13	0.03173828125	286.231912277334	-4.65423583984375E-05	0.031878662109375
14	0.0341796875	286.256312277272	-4.52392578125E-05	0.0343292236328125
15	0.03662109375	286.280712277211	-4.5843505859375E-05	0.036773681640625
16	0.0390625	286.305112277149	-4.43115234375E-05	0.0392181396484375
17	0.04150390625	286.329512277087	-4.5037841796875E-05	0.0416259765625
18	0.0439453125	286.353912277026	-4.420166015625E-05	0.044091796875
19	0.04638671875	286.378312276964	-4.3994140625E-05	0.046527099609375
20	0.048828125	286.402712276903	-4.3927001953125E-05	0.04898681640625
21	0.05126953125	286.427112276841	-4.30938720703125E-05	0.05145263671875
22	0.0537109375	286.451512276779	-4.38446044921875E-05	0.05377197265625
23	0.05615234375	286.475912276718	-4.23583984375E-05	0.0562744140625
24	0.05859375	286.500312276656	-4.302978515625E-05	0.058685302734375
25	0.06103515625	286.524712276595	-4.18914794921875E-05	0.061126708984375
26	0.0634765625	286.549112276533	-4.2205810546875E-05	0.063629150390625
27	0.06591796875	286.573512276471	-4.19830322265625E-05	0.066070556640625
28	0.068359375	286.59791227641	-4.12872314453125E-05	0.068511962890625
29	0.07080078125	286.622312276348	-4.1802978515625E-05	0.070892333984375
30	0.0732421875	286.646712276287	-4.04052734375E-05	0.073333740234375
31	0.07568359375	286.671112276225	-4.13909912109375E-05	0.0758056640625
32	0.078125	286.695512276163	-4.00146484375E-05	0.07818603515625
33	0.08056640625	286.719912276102	-4.03961181640625E-05	0.08062744140625
34	0.0830078125	286.74431227604	-3.97613525390625E-05	0.083099365234375
35	0.08544921875	286.768712275979	-3.94561767578125E-05	0.0855712890625
36	0.087890625	286.793112275917	-3.9752197265625E-05	0.087982177734375
37	0.09033203125	286.817512275855	-3.8616943359375E-05	0.090423583984375
38	0.0927734375	286.841912275794	-3.9154052734375E-05	0.092864990234375
39	0.09521484375	286.866312275732	-3.76678466796875E-05	0.09527587890625
40	0.09765625	286.890712275671	-3.8525390625E-05	0.09771728515625
41	0.10009765625	286.915112275609	-3.74542236328125E-05	0.100189208984375
42	0.1025390625	286.939512275547	-3.73291015625E-05	0.10260009765625
43	0.10498046875	286.963912275486	-3.7030029296875E-05	0.105133056640625
44	0.107421875	286.988312275424	-3.61053466796875E-05	0.1075439453125
45	0.10986328125	287.012712275363	-3.675537109375E-05	0.10992431640625
46	0.1123046875	287.037112275301	-3.524169921875E-05	0.112396240234375
47	0.11474609375	287.061512275239	-3.57391357421875E-05	0.1148681640625
48	0.1171875	287.085912275178	-3.447265625E-05	0.117279052734375
49	0.11962890625	287.110312275116	-3.502197265625E-05	0.11968994140625
50	0.1220703125	287.134712275055	-3.4619140625E-05	0.122161865234375
51	0.12451171875	287.159112274993	-3.3941650390625E-05	0.1246337890625
52	0.126953125	287.183512274931	-3.4368896484375E-05	0.127044677734375
53	0.12939453125	287.20791227487	-3.31024169921875E-05	0.129486083984375
54	0.1318359375	287.232312274808	-3.3831787109375E-05	0.13189697265625
55	0.13427734375	287.256712274747	-3.24981689453125E-05	0.1343994140625
56	0.13671875	287.281112274685	-3.28338623046875E-05	0.136749267578125
57	0.13916015625	287.305512274623	-3.21807861328125E-05	0.13922119140625
58	0.1416015625	287.329912274562	-3.19671630859375E-05	0.141754150390625
59	0.14404296875	287.3543122745	-3.2037353515625E-05	0.1441650390625
60	0.146484375	287.378712274438	-3.10943603515625E-05	0.14654541015625
61	0.14892578125	287.403112274377	-3.165283203125E-05	0.149017333984375
62	0.1513671875	287.427512274315	-2.99896240234375E-05	0.151397705078125
63	0.15380859375	287.451912274254	-3.06610107421875E-05	0.1539306640625
64	0.15625	287.476312274192	-3.0023193359375E-05	0.15631103515625
65	0.15869140625	287.50071227413	-2.9901123046875E-05	0.15875244140625
66	0.1611328125	287.525112274069	-2.947998046875E-05	0.161224365234375
67	0.16357421875	287.549512274007	-2.88818359375E-05	0.163665771484375
68	0.166015625	287.573912273946	-2.9376220703125E-05	0.166107177734375
69	0.16845703125	287.598312273884	-2.79388427734375E-05	0.16851806640625
70	0.1708984375	287.622712273822	-2.8564453125E-05	0.170989990234375
71	0.17333984375	287.647112273761	-2.708740234375E-05	0.1734619140625
72	0.17578125	287.671512273699	-2.75970458984375E-05	0.17584228515625
73	0.17822265625	287.695912273638	-2.70263671875E-05	0.178314208984375
74	0.1806640625	287.720312273576	-2.63153076171875E-05	0.18072509765625
75	0.18310546875	287.744712273514	-2.67333984375E-05	0.183135986328125
76	0.185546875	287.769112273453	-2.5323486328125E-05	0.185638427734375
77	0.18798828125	287.793512273391	-2.60406494140625E-05	0.188079833984375
78	0.1904296875	287.81791227333	-2.43865966796875E-05	0.19049072265625
79	0.19287109375	287.842312273268	-2.50274658203125E-05	0.19293212890625
80	0.1953125	287.866712273206	-2.40447998046875E-05	0.19537353515625
81	0.19775390625	287.891112273145	-2.39654541015625E-05	0.197845458984375
82	0.2001953125	287.915512273083	-2.39349365234375E-05	0.20025634765625
83	0.20263671875	287.939912273022	-2.27081298828125E-05	0.202728271484375
84	0.205078125	287.96431227296	-2.34130859375E-05	0.205108642578125
85	0.20751953125	287.988712272898	-2.19146728515625E-05	0.2076416015625
86	0.2099609375	288.013112272837	-2.30316162109375E-05	0.209991455078125
87	0.21240234375	288.037512272775	-2.20123291015625E-05	0.212432861328125
88	0.21484375	288.061912272714	-2.21649169921875E-05	0.214874267578125
89	0.21728515625	288.086312272652	-2.16827392578125E-05	0.21728515625
90	0.2197265625	288.11071227259	-2.0947265625E-05	0.2198486328125
91	0.22216796875	288.135112272529	-2.12921142578125E-05	0.222198486328125
92	0.224609375	288.159512272467	-1.97967529296875E-05	0.224700927734375
93	0.22705078125	288.183912272406	-2.05322265625E-05	0.22705078125
94	0.2294921875	288.208312272344	-1.89666748046875E-05	0.229522705078125
95	0.23193359375	288.232712272282	-1.91619873046875E-05	0.231964111328125
96	0.234375	288.257112272221	-1.8927001953125E-05	0.234405517578125
97	0.23681640625	288.281512272159	-1.83685302734375E-05	0.23687744140625
98	0.2392578125	288.305912272098	-1.8328857421875E-05	0.239349365234375
99	0.24169921875	288.330312272036	-1.74652099609375E-05	0.24176025390625
100	0.244140625	288.354712271974	-1.81304931640625E-05	0.244232177734375
101	0.24658203125	288.379112271913	-1.62017822265625E-05	0.24664306640625
102	0.2490234375	288.403512271851	-1.6778564453125E-05	0.24908447265625
103	0.25146484375	288.42791227179	-1.573486328125E-05	0.251495361328125
104	0.25390625	288.452312271728	-1.5972900390625E-05	0.253997802734375
105	0.25634765625	288.476712271666	-1.534423828125E-05	0.25634765625
106	0.2587890625	288.501112271605	-1.4642333984375E-05	0.25885009765625
107	0.26123046875	288.525512271543	-1.5289306640625E-05	0.26129150390625
108	0.263671875	288.549912271482	-1.35467529296875E-05	0.263763427734375
109	0.26611328125	288.57431227142	-1.40777587890625E-05	0.266143798828125
110	0.2685546875	288.598712271358	-1.2908935546875E-05	0.26861572265625
111	0.27099609375	288.623112271297	-1.32049560546875E-05	0.27105712890625
112	0.2734375	288.647512271235	-1.27105712890625E-05	0.273468017578125
113	0.27587890625	288.671912271173	-1.2384033203125E-05	0.275970458984375
114	0.2783203125	288.696312271112	-1.25244140625E-05	0.278411865234375
115	0.28076171875	288.72071227105	-1.109619140625E-05	0.280792236328125
116	0.283203125	288.745112270989	-1.14532470703125E-05	0.28326416015625
117	0.28564453125	288.769512270927	-1.01470947265625E-05	0.285675048828125
118	0.2880859375	288.793912270865	-1.06719970703125E-05	0.288116455078125
119	0.29052734375	288.818312270804	-9.722900390625E-06	0.29058837890625
120	0.29296875	288.842712270742	-9.5977783203125E-06	0.29296875
121	0.29541015625	288.867112270681	-9.613037109375E-06	0.29541015625
122	0.2978515625	288.891512270619	-8.221435546875E-06	0.297882080078125
123	0.30029296875	288.915912270557	-9.0789794921875E-06	0.300323486328125
124	0.302734375	288.940312270496	-7.476806640625E-06	0.302825927734375
125	0.30517578125	288.964712270434	-7.952880859375E-06	0.305267333984375
126	0.3076171875	288.989112270373	-7.09228515625E-06	0.30767822265625
127	0.31005859375	289.013512270311	-7.2723388671875E-06	0.31011962890625
128	0.3125	289.037912270249	-6.475830078125E-06	0.312591552734375
129	0.31494140625	289.062312270188	-5.950927734375E-06	0.31494140625
130	0.3173828125	289.086712270126	-6.4056396484375E-06	0.3173828125
131	0.31982421875	289.111112270065	-4.87060546875E-06	0.31988525390625
132	0.322265625	289.135512270003	-5.706787109375E-06	0.322265625
133	0.32470703125	289.159912269941	-3.9642333984375E-06	0.324737548828125
134	0.3271484375	289.18431226988	-4.5013427734375E-06	0.32720947265625
135	0.32958984375	289.208712269818	-3.9825439453125E-06	0.329620361328125
136	0.33203125	289.233112269757	-3.387451171875E-06	0.332122802734375
137	0.33447265625	289.257512269695	-3.94012451171875E-06	0.33447265625
138	0.3369140625	289.281912269633	-2.37823486328125E-06	0.336944580078125
139	0.33935546875	289.306312269572	-2.9376220703125E-06	0.33941650390625
140	0.341796875	289.33071226951	-1.26190185546875E-06	0.341796875
141	0.34423828125	289.355112269449	-1.61773681640625E-06	0.344207763671875
142	0.3466796875	289.379512269387	-1.28082275390625E-06	0.346710205078125
143	0.34912109375	289.403912269325	-6.1187744140625E-07	0.349090576171875
144	0.3515625	289.428312269264	-5.987548828125E-07	0.35162353515625
145	0.35400390625	289.452712269202	5.3924560546875E-07	0.35400390625
146	0.3564453125	289.477112269141	4.2236328125E-07	0.35638427734375
147	0.35888671875	289.501512269079	2.1002197265625E-06	0.35882568359375
148	0.361328125	289.525912269017	9.9517822265625E-07	0.361297607421875
149	0.36376953125	289.550312268956	2.3968505859375E-06	0.363739013671875
150	0.3662109375	289.574712268894	2.80792236328125E-06	0.366180419921875
151	0.36865234375	289.599112268833	2.71209716796875E-06	0.36859130859375
152	0.37109375	289.623512268771	3.77197265625E-06	0.37103271484375
153	0.37353515625	289.647912268709	3.6566162109375E-06	0.373443603515625
154	0.3759765625	289.672312268648	5.126953125E-06	0.3758544921875
155	0.37841796875	289.696712268586	4.071044921875E-06	0.3782958984375
156	0.380859375	289.721112268525	5.87158203125E-06	0.38067626953125
157	0.38330078125	289.745512268463	5.0140380859375E-06	0.383209228515625
158	0.3857421875	289.769912268401	6.1431884765625E-06	0.385589599609375
159	0.38818359375	289.79431226834	6.689453125E-06	0.388031005859375
160	0.390625	289.818712268278	7.2479248046875E-06	0.3905029296875
161	0.39306640625	289.843112268216	7.708740234375E-06	0.3929443359375
162	0.3955078125	289.867512268155	7.208251953125E-06	0.395355224609375
163	0.39794921875	289.891912268093	8.6334228515625E-06	0.39776611328125
164	0.400390625	289.916312268032	7.8094482421875E-06	0.4002685546875
165	0.40283203125	289.94071226797	9.674072265625E-06	0.40264892578125
166	0.4052734375	289.965112267908	1.00555419921875E-05	0.40509033203125
167	0.40771484375	289.989512267847	1.0650634765625E-05	0.4075927734375
168	0.41015625	290.013912267785	1.19110107421875E-05	0.40997314453125
169	0.41259765625	290.038312267724	1.0821533203125E-05	0.412445068359375
170	0.4150390625	290.062712267662	1.29364013671875E-05	0.414825439453125
171	0.41748046875	290.0871122676	1.2408447265625E-05	0.417205810546875
172	0.419921875	290.111512267539	1.4105224609375E-05	0.41973876953125
173	0.42236328125	290.135912267477	1.41357421875E-05	0.422088623046875
174	0.4248046875	290.160312267416	1.46942138671875E-05	0.424560546875
175	0.42724609375	290.184712267354	1.45599365234375E-05	0.42694091796875
176	0.4296875	290.209112267292	1.47064208984375E-05	0.429443359375
177	0.43212890625	290.233512267231	1.622314453125E-05	0.431854248046875
178	0.4345703125	290.257912267169	1.51458740234375E-05	0.43426513671875
179	0.43701171875	290.282312267108	1.70928955078125E-05	0.436737060546875
180	0.439453125	290.306712267046	1.7169189453125E-05	0.439178466796875
181	0.44189453125	290.331112266984	1.86614990234375E-05	0.441558837890625
182	0.4443359375	290.355512266923	1.85638427734375E-05	0.444000244140625
183	0.44677734375	290.379912266861	1.96533203125E-05	0.4464111328125
184	0.44921875	290.4043122668	2.098388671875E-05	0.448760986328125
185	0.45166015625	290.428712266738	2.1728515625E-05	0.45123291015625
186	0.4541015625	290.453112266676	2.31903076171875E-05	0.45361328125
187	0.45654296875	290.477512266615	2.2296142578125E-05	0.4560546875
188	0.458984375	290.501912266553	2.4346923828125E-05	0.45849609375
189	0.46142578125	290.526312266492	2.41485595703125E-05	0.46087646484375
190	0.4638671875	290.55071226643	2.51922607421875E-05	0.46331787109375
191	0.46630859375	290.575112266368	2.59033203125E-05	0.465728759765625
192	0.46875	290.599512266307	2.5592041015625E-05	0.468170166015625
193	0.47119140625	290.623912266245	2.7520751953125E-05	0.4705810546875
194	0.4736328125	290.648312266184	2.7691650390625E-05	0.47296142578125
195	0.47607421875	290.672712266122	2.82989501953125E-05	0.475494384765625
196	0.478515625	290.69711226606	2.9339599609375E-05	0.477813720703125
197	0.48095703125	290.721512265999	3.0120849609375E-05	0.48028564453125
198	0.4833984375	290.745912265937	3.0621337890625E-05	0.483306884765625
199	0.48583984375	290.770312265876	3.106689453125E-05	0.48577880859375
200	0.48828125	290.794712265814	3.29071044921875E-05	0.4881591796875
201	0.49072265625	290.819112265752	3.326416015625E-05	0.4906005859375
202	0.4931640625	290.843512265691	3.49853515625E-05	0.4930419921875
203	0.49560546875	290.867912265629	3.3807373046875E-05	0.4954833984375
204	0.498046875	290.892312265568	3.58489990234375E-05	0.4979248046875
205	0.50048828125	290.916712265506	3.60015869140625E-05	0.5003662109375
206	0.5029296875	290.941112265444	3.720703125E-05	0.502777099609375
207	0.50537109375	290.965512265383	3.84033203125E-05	0.5052490234375
208	0.5078125	290.989912265321	3.80584716796875E-05	0.50775146484375
209	0.51025390625	291.014312265259	4.0765380859375E-05	0.510162353515625
210	0.5126953125	291.038712265198	4.03533935546875E-05	0.5125732421875
211	0.51513671875	291.063112265136	4.22454833984375E-05	0.5150146484375
212	0.517578125	291.087512265075	4.26025390625E-05	0.5174560546875
213	0.52001953125	291.111912265013	4.3658447265625E-05	0.519866943359375
214	0.5224609375	291.136312264951	4.398193359375E-05	0.522369384765625
215	0.52490234375	291.16071226489	4.483642578125E-05	0.5247802734375
216	0.52734375	291.185112264828	4.69970703125E-05	0.527191162109375
217	0.52978515625	291.209512264767	4.72412109375E-05	0.529632568359375
218	0.5322265625	291.233912264705	4.8980712890625E-05	0.532073974609375
219	0.53466796875	291.258312264643	4.9713134765625E-05	0.534515380859375
220	0.537109375	291.282712264582	5.224609375E-05	0.5369873046875
221	0.53955078125	291.30711226452	5.3375244140625E-05	0.53936767578125
222	0.5419921875	291.331512264459	5.4962158203125E-05	0.54180908203125
223	0.54443359375	291.355912264397	5.60302734375E-05	0.54425048828125
224	0.546875	291.380312264335	5.657958984375E-05	0.546722412109375
225	0.54931640625	291.404712264274	5.914306640625E-05	0.549163818359375
226	0.5517578125	291.429112264212	5.9722900390625E-05	0.5516357421875
227	0.55419921875	291.453512264151	6.207275390625E-05	0.554046630859375
228	0.556640625	291.477912264089	6.3232421875E-05	0.5565185546875
229	0.55908203125	291.502312264027	6.4453125E-05	0.558929443359375
230	0.5615234375	291.526712263966	6.610107421875E-05	0.561370849609375
231	0.56396484375	291.551112263904	6.7169189453125E-05	0.563812255859375
232	0.56640625	291.575512263843	6.988525390625E-05	0.5662841796875
233	0.56884765625	291.599912263781	7.0648193359375E-05	0.56866455078125
234	0.5712890625	291.624312263719	7.4066162109375E-05	0.571075439453125
235	0.57373046875	291.648712263658	7.4310302734375E-05	0.57354736328125
236	0.576171875	291.673112263596	7.6629638671875E-05	0.57598876953125
237	0.57861328125	291.697512263535	7.75146484375E-05	0.578399658203125
238	0.5810546875	291.721912263473	7.9254150390625E-05	0.580841064453125
239	0.58349609375	291.746312263411	8.2489013671875E-05	0.583251953125
240	0.5859375	291.77071226335	8.251953125E-05	0.585784912109375
241	0.58837890625	291.795112263288	8.6212158203125E-05	0.588134765625
242	0.5908203125	291.819512263227	8.636474609375E-05	0.590576171875
243	0.59326171875	291.843912263165	8.94775390625E-05	0.593109130859375
244	0.595703125	291.868312263103	9.088134765625E-05	0.595489501953125
245	0.59814453125	291.892712263042	9.2803955078125E-05	0.59796142578125
246	0.6005859375	291.91711226298	9.5916748046875E-05	0.60040283203125
247	0.60302734375	291.941512262919	9.600830078125E-05	0.60284423828125
248	0.60546875	291.965912262857	0.000100128173828125	0.605224609375
249	0.60791015625	291.990312262795	0.000101898193359375	0.60760498046875
250	0.6103515625	292.014712262734	0.00010498046875	0.610107421875
251	0.61279296875	292.039112262672	0.000107086181640625	0.61248779296875
252	0.615234375	292.063512262611	0.000110687255859375	0.614990234375
253	0.61767578125	292.087912262549	0.00011279296875	0.617431640625
254	0.6201171875	292.112312262487	0.000115234375	0.619842529296875
255	0.62255859375	292.136712262426	0.00011865234375	0.622283935546875
256	0.625	292.161112262364	0.000120269775390625	0.624725341796875
257	0.62744140625	292.185512262302	0.000124176025390625	0.6270751953125
258	0.6298828125	292.209912262241	0.000125701904296875	0.6295166015625
259	0.63232421875	292.234312262179	0.0001300048828125	0.632049560546875
260	0.634765625	292.258712262118	0.00013165283203125	0.634429931640625
261	0.63720703125	292.283112262056	0.000134552001953125	0.63690185546875
262	0.6396484375	292.307512261994	0.00013848876953125	0.6392822265625
263	0.64208984375	292.331912261933	0.00014154052734375	0.6417236328125
264	0.64453125	292.356312261871	0.00014599609375	0.644195556640625
265	0.64697265625	292.38071226181	0.0001474609375	0.64654541015625
266	0.6494140625	292.405112261748	0.000151611328125	0.64898681640625
267	0.65185546875	292.429512261686	0.000155181884765625	0.651458740234375
268	0.654296875	292.453912261625	0.000159027099609375	0.653839111328125
269	0.65673828125	292.478312261563	0.00016278076171875	0.65631103515625
270	0.6591796875	292.502712261502	0.00016595458984375	0.658721923828125
271	0.66162109375	292.52711226144	0.00017156982421875	0.6611328125
272	0.6640625	292.551512261378	0.000173614501953125	0.66357421875
273	0.66650390625	292.575912261317	0.00017852783203125	0.666015625
274	0.6689453125	292.600312261255	0.000181793212890625	0.668426513671875
275	0.67138671875	292.624712261194	0.0001866455078125	0.67083740234375
276	0.673828125	292.649112261132	0.000190704345703125	0.673309326171875
277	0.67626953125	292.67351226107	0.000195587158203125	0.67578125
278	0.6787109375	292.697912261009	0.000200836181640625	0.678131103515625
279	0.68115234375	292.722312260947	0.00020489501953125	0.680511474609375
280	0.68359375	292.746712260886	0.00021087646484375	0.68304443359375
281	0.68603515625	292.771112260824	0.000214935302734375	0.685455322265625
282	0.6884765625	292.795512260762	0.000221527099609375	0.687835693359375
283	0.69091796875	292.819912260701	0.000227142333984375	0.69024658203125
284	0.693359375	292.844312260639	0.000232025146484375	0.692657470703125
285	0.69580078125	292.868712260578	0.000238311767578125	0.695068359375
286	0.6982421875	292.893112260516	0.00024322509765625	0.697540283203125
287	0.70068359375	292.917512260454	0.000250701904296875	0.699951171875
288	0.703125	292.941912260393	0.000255401611328125	0.70233154296875
289	0.70556640625	292.966312260331	0.000262939453125	0.70477294921875
290	0.7080078125	292.99071226027	0.000269317626953125	0.70721435546875
291	0.71044921875	293.015112260208	0.000277130126953125	0.70965576171875
292	0.712890625	293.039512260146	0.00028289794921875	0.712066650390625
293	0.71533203125	293.063912260085	0.00028924560546875	0.714508056640625
294	0.7177734375	293.088312260023	0.000296600341796875	0.71685791015625
295	0.72021484375	293.112712259962	0.000304351806640625	0.719329833984375
296	0.72265625	293.1371122599	0.000313018798828125	0.72247314453125
297	0.72509765625	293.161512259838	0.00031982421875	0.724884033203125
298	0.7275390625	293.185912259777	0.00032830810546875	0.727325439453125
299	0.72998046875	293.210312259715	0.00033563232421875	0.729766845703125
300	0.732421875	293.234712259654	0.000344635009765625	0.73223876953125
301	0.73486328125	293.259112259592	0.00035382080078125	0.734619140625
302	0.7373046875	293.28351225953	0.000361541748046875	0.737091064453125
303	0.73974609375	293.307912259469	0.00037017822265625	0.73944091796875
304	0.7421875	293.332312259407	0.000379425048828125	0.741943359375
305	0.74462890625	293.356712259345	0.00038946533203125	0.744384765625
306	0.7470703125	293.381112259284	0.00040020751953125	0.746795654296875
307	0.74951171875	293.405512259222	0.000409332275390625	0.749237060546875
308	0.751953125	293.429912259161	0.000419891357421875	0.75164794921875
309	0.75439453125	293.454312259099	0.000431060791015625	0.75439453125
310	0.7568359375	293.478712259037	0.0004422607421875	0.75592041015625
311	0.75927734375	293.503112258976	0.000452606201171875	0.7586669921875
312	0.76171875	293.527512258914	0.00046478271484375	0.7611083984375
313	0.76416015625	293.551912258853	0.000476806640625	0.7635498046875
314	0.7666015625	293.576312258791	0.000489654541015625	0.76629638671875
315	0.76904296875	293.600712258729	0.000501708984375	0.767822265625
316	0.771484375	293.625112258668	0.00051422119140625	0.7708740234375
317	0.77392578125	293.649512258606	0.00052734375	0.7733154296875
318	0.7763671875	293.673912258545	0.000540771484375	0.77606201171875
319	0.77880859375	293.698312258483	0.0005535888671875	0.777587890625
320	0.78125	293.722712258421	0.0005682373046875	0.7806396484375
321	0.78369140625	293.74711225836	0.0005816650390625	0.78277587890625
322	0.7861328125	293.771512258298	0.000595703125	0.78582763671875
323	0.78857421875	293.795912258237	0.00061126708984375	0.7879638671875
324	0.791015625	293.820312258175	0.000626220703125	0.79010009765625
325	0.79345703125	293.844712258113	0.0006414794921875	0.79254150390625
326	0.7958984375	293.869112258052	0.00065826416015625	0.7952880859375
327	0.79833984375	293.89351225799	0.0006732177734375	0.7977294921875
328	0.80078125	293.917912257929	0.000689697265625	0.79986572265625
329	0.80322265625	293.942312257867	0.0007073974609375	0.80230712890625
330	0.8056640625	293.966712257805	0.00072509765625	0.80474853515625
331	0.80810546875	293.991112257744	0.00074310302734375	0.80718994140625
332	0.810546875	294.015512257682	0.00076202392578125	0.81024169921875
333	0.81298828125	294.039912257621	0.0007794189453125	0.81207275390625
334	0.8154296875	294.064312257559	0.00079742431640625	0.81451416015625
335	0.81787109375	294.088712257497	0.00081634521484375	0.8172607421875
336	0.8203125	294.113112257436	0.00083526611328125	0.81939697265625
337	0.82275390625	294.137512257374	0.00085662841796875	0.8221435546875
338	0.8251953125	294.161912257313	0.0008770751953125	0.8245849609375
339	0.82763671875	294.186312257251	0.00089752197265625	0.82672119140625
340	0.830078125	294.210712257189	0.00091766357421875	0.8294677734375
341	0.83251953125	294.235112257128	0.00093994140625	0.8319091796875
342	0.8349609375	294.259512257066	0.00096038818359375	0.83465576171875
343	0.83740234375	294.283912257005	0.0009844970703125	0.8367919921875
344	0.83984375	294.308312256943	0.001007080078125	0.838623046875
345	0.84228515625	294.332712256881	0.0010296630859375	0.8416748046875
346	0.8447265625	294.35711225682	0.0010546875	0.84381103515625
347	0.84716796875	294.381512256758	0.00107757568359375	0.84716796875
348	0.849609375	294.405912256697	0.00110321044921875	0.8489990234375
349	0.85205078125	294.430312256635	0.00112640380859375	0.85113525390625
350	0.8544921875	294.454712256573	0.00115234375	0.853271484375
351	0.85693359375	294.479112256512	0.00117706298828125	0.855712890625
352	0.859375	294.50351225645	0.0012042236328125	0.8587646484375
353	0.86181640625	294.527912256389	0.00123046875	0.86090087890625
354	0.8642578125	294.552312256327	0.00125762939453125	0.863037109375
355	0.86669921875	294.576712256265	0.0012860107421875	0.8660888671875
356	0.869140625	294.601112256204	0.0013128662109375	0.86761474609375
357	0.87158203125	294.625512256142	0.0013421630859375	0.87066650390625
358	0.8740234375	294.64991225608	0.00136993408203125	0.872802734375
359	0.87646484375	294.674312256019	0.001400146484375	0.8758544921875
360	0.87890625	294.698712255957	0.0014288330078125	0.877685546875
361	0.88134765625	294.723112255896	0.00145843505859375	0.8807373046875
362	0.8837890625	294.747512255834	0.00149078369140625	0.8831787109375
363	0.88623046875	294.771912255772	0.00152008056640625	0.88592529296875
364	0.888671875	294.796312255711	0.00155242919921875	0.8880615234375
365	0.89111328125	294.820712255649	0.00158294677734375	0.88958740234375
366	0.8935546875	294.845112255588	0.00161651611328125	0.89263916015625
367	0.89599609375	294.869512255526	0.0016485595703125	0.89508056640625
368	0.8984375	294.893912255464	0.00168182373046875	0.89752197265625
369	0.90087890625	294.918312255403	0.00171539306640625	0.899658203125
370	0.9033203125	294.942712255341	0.00174896240234375	0.9027099609375
371	0.90576171875	294.96711225528	0.00178375244140625	0.9051513671875
372	0.908203125	294.991512255218	0.00181610107421875	0.906982421875
373	0.91064453125	295.015912255156	0.00185302734375	0.90972900390625
374	0.9130859375	295.040312255095	0.00188812255859375	0.9124755859375
375	0.91552734375	295.064712255033	0.0019256591796875	0.91461181640625
376	0.91796875	295.089112254972	0.00196075439453125	0.9173583984375
377	0.92041015625	295.11351225491	0.00199676513671875	0.91949462890625
378	0.9228515625	295.137912254848	0.002034912109375	0.92193603515625
379	0.92529296875	295.162312254787	0.0020709228515625	0.92437744140625
380	0.927734375	295.186712254725	0.0021099853515625	0.92681884765625
381	0.93017578125	295.211112254664	0.00214599609375	0.928955078125
382	0.9326171875	295.235512254602	0.00218536376953125	0.93170166015625
383	0.93505859375	295.25991225454	0.00222381591796875	0.933837890625
384	0.9375	295.284312254479	0.00226409912109375	0.93719482421875
385	0.93994140625	295.308712254417	0.0023046875	0.93902587890625
386	0.9423828125	295.333112254356	0.00234344482421875	0.94085693359375
387	0.94482421875	295.357512254294	0.00238616943359375	0.94451904296875
388	0.947265625	295.381912254232	0.002425537109375	0.94635009765625
389	0.94970703125	295.406312254171	0.0024688720703125	0.9490966796875
390	0.9521484375	295.430712254109	0.00250885009765625	0.9515380859375
391	0.95458984375	295.455112254048	0.002552490234375	0.9539794921875
392	0.95703125	295.479512253986	0.00259552001953125	0.955810546875
393	0.95947265625	295.503912253924	0.00263916015625	0.95855712890625
394	0.9619140625	295.528312253863	0.0026824951171875	0.96099853515625
395	0.96435546875	295.552712253801	0.002724609375	0.9637451171875
396	0.966796875	295.57711225374	0.0027703857421875	0.96527099609375
397	0.96923828125	295.601512253678	0.00281341552734375	0.9686279296875
398	0.9716796875	295.625912253616	0.00285980224609375	0.9710693359375
399	0.97412109375	295.650312253555	0.0029034423828125	0.9735107421875
400	0.9765625	295.674712253493	0.0029498291015625	0.9759521484375
401	0.97900390625	295.699112253432	0.00299652099609375	0.97808837890625
402	0.9814453125	295.72351225337	0.0030413818359375	0.980224609375
403	0.98388671875	295.747912253308	0.00308929443359375	0.9832763671875
404	0.986328125	295.772312253247	0.00313385009765625	0.98541259765625
405	0.98876953125	295.796712253185	0.0031829833984375	0.98785400390625
406	0.9912109375	295.821112253123	0.0032293701171875	0.9906005859375
407	0.99365234375	295.845512253062	0.00327789306640625	0.992431640625
408	0.99609375	295.869912253	0.00332550048828125	0.99517822265625
409	0.99853515625	295.894312252939	0.00337371826171875	0.99761962890625
410	1.0009765625	295.918712252877	0.0034228515625	1.0003662109375
411	1.00341796875	295.943112252815	0.00347015380859375	1.002197265625
412	1.005859375	295.967512252754	0.00352020263671875	1.00494384765625
413	1.00830078125	295.991912252692	0.00356658935546875	1.00738525390625
414	1.0107421875	296.016312252631	0.00361602783203125	1.00982666015625
415	1.01318359375	296.040712252569	0.00366424560546875	1.01226806640625
416	1.015625	296.065112252507	0.00371307373046875	1.014404296875
417	1.01806640625	296.089512252446	0.00376251220703125	1.01715087890625
418	1.0205078125	296.113912252384	0.00380889892578125	1.01959228515625
419	1.02294921875	296.138312252323	0.00385894775390625	1.02203369140625
420	1.025390625	296.162712252261	0.0039044189453125	1.024169921875
421	1.02783203125	296.187112252199	0.00395294189453125	1.02691650390625
422	1.0302734375	296.211512252138	0.003997802734375	1.02935791015625
423	1.03271484375	296.235912252076	0.004044189453125	1.03179931640625
424	1.03515625	296.260312252015	0.00408935546875	1.033935546875
425	1.03759765625	296.284712251953	0.0041326904296875	1.03729248046875
426	1.0400390625	296.309112251891	0.0041766357421875	1.03912353515625
427	1.04248046875	296.33351225183	0.00421722412109375	1.04156494140625
428	1.044921875	296.357912251768	0.0042596435546875	1.04400634765625
429	1.04736328125	296.382312251707	0.00429840087890625	1.0467529296875
430	1.0498046875	296.406712251645	0.00433807373046875	1.048583984375
431	1.05224609375	296.431112251583	0.00437530517578125	1.051025390625
432	1.0546875	296.455512251522	0.00441162109375	1.05377197265625
433	1.05712890625	296.47991225146	0.0044476318359375	1.05621337890625
434	1.0595703125	296.504312251399	0.00448150634765625	1.05865478515625
435	1.06201171875	296.528712251337	0.00451568603515625	1.0614013671875
436	1.064453125	296.553112251275	0.0045465087890625	1.06353759765625
437	1.06689453125	296.577512251214	0.0045782470703125	1.0662841796875
438	1.0693359375	296.601912251152	0.004608154296875	1.068115234375
439	1.07177734375	296.626312251091	0.004637451171875	1.07086181640625
440	1.07421875	296.650712251029	0.00466583251953125	1.0736083984375
441	1.07666015625	296.675112250967	0.00469268798828125	1.07574462890625
442	1.0791015625	296.699512250906	0.00472015380859375	1.077880859375
443	1.08154296875	296.723912250844	0.0047454833984375	1.0809326171875
444	1.083984375	296.748312250783	0.0047711181640625	1.08306884765625
445	1.08642578125	296.772712250721	0.00479522705078125	1.0858154296875
446	1.0888671875	296.797112250659	0.00481903076171875	1.0882568359375
447	1.09130859375	296.821512250598	0.004842529296875	1.09039306640625
448	1.09375	296.845912250536	0.004864501953125	1.092529296875
449	1.09619140625	296.870312250475	0.00488677978515625	1.094970703125
450	1.0986328125	296.894712250413	0.0049078369140625	1.097412109375
451	1.10107421875	296.919112250351	0.00492919921875	1.10015869140625
452	1.103515625	296.94351225029	0.00494903564453125	1.10260009765625
453	1.10595703125	296.967912250228	0.004969482421875	1.104736328125
454	1.1083984375	296.992312250166	0.00498870849609375	1.107177734375
455	1.11083984375	297.016712250105	0.00500732421875	1.10992431640625
456	1.11328125	297.041112250043	0.0050262451171875	1.112060546875
457	1.11572265625	297.065512249982	0.00504425048828125	1.1151123046875
458	1.1181640625	297.08991224992	0.00506256103515625	1.116943359375
459	1.12060546875	297.114312249858	0.00507965087890625	1.119384765625
460	1.123046875	297.138712249797	0.0050970458984375	1.1224365234375
461	1.12548828125	297.163112249735	0.005113525390625	1.12457275390625
462	1.1279296875	297.187512249674	0.00513031005859375	1.12701416015625
463	1.13037109375	297.211912249612	0.005146484375	1.12945556640625
464	1.1328125	297.23631224955	0.005162353515625	1.13189697265625
465	1.13525390625	297.260712249489	0.00517791748046875	1.134033203125
466	1.1376953125	297.285112249427	0.00519317626953125	1.13677978515625
467	1.14013671875	297.309512249366	0.005208740234375	1.138916015625
468	1.142578125	297.333912249304	0.00522308349609375	1.14166259765625
469	1.14501953125	297.358312249242	0.005238037109375	1.1444091796875
470	1.1474609375	297.382712249181	0.00525238037109375	1.14654541015625
471	1.14990234375	297.407112249119	0.00526641845703125	1.14898681640625
472	1.15234375	297.431512249058	0.00528045654296875	1.15142822265625
473	1.15478515625	297.455912248996	0.00529388427734375	1.15386962890625
474	1.1572265625	297.480312248934	0.00530792236328125	1.156005859375
475	1.15966796875	297.504712248873	0.005321044921875	1.15875244140625
476	1.162109375	297.529112248811	0.00533416748046875	1.16119384765625
477	1.16455078125	297.55351224875	0.00534698486328125	1.16363525390625
478	1.1669921875	297.577912248688	0.00535980224609375	1.1663818359375
479	1.16943359375	297.602312248626	0.00537261962890625	1.16790771484375
480	1.171875	297.626712248565	0.0053851318359375	1.170654296875
481	1.17431640625	297.651112248503	0.0053973388671875	1.17279052734375
482	1.1767578125	297.675512248442	0.00540924072265625	1.17584228515625
483	1.17919921875	297.69991224838	0.00542144775390625	1.17828369140625
484	1.181640625	297.724312248318	0.005433349609375	1.180419921875
485	1.18408203125	297.748712248257	0.0054449462890625	1.18316650390625
486	1.1865234375	297.773112248195	0.00545654296875	1.18560791015625
487	1.18896484375	297.797512248134	0.00546783447265625	1.187744140625
488	1.19140625	297.821912248072	0.00547943115234375	1.190185546875
489	1.19384765625	297.84631224801	0.00549041748046875	1.19293212890625
490	1.1962890625	297.870712247949	0.00550140380859375	1.1956787109375
491	1.19873046875	297.895112247887	0.0055120849609375	1.19720458984375
492	1.201171875	297.919512247826	0.0055230712890625	1.20025634765625
493	1.19873046875	297.943912247764	0.0055072021484375	1.197509765625
494	1.1962890625	297.968312247702	0.0054913330078125	1.19537353515625
495	1.19384765625	297.992712247641	0.005474853515625	1.192626953125
496	1.19140625	298.017112247579	0.0054583740234375	1.190185546875
497	1.18896484375	298.041512247518	0.00544189453125	1.187744140625
498	1.1865234375	298.065912247456	0.00542449951171875	1.18560791015625
499	1.18408203125	298.090312247394	0.00540740966796875	1.18316650390625
500	1.181640625	298.114712247333	0.00538970947265625	1.18011474609375
501	1.17919921875	298.139112247271	0.0053717041015625	1.17828369140625
502	1.1767578125	298.163512247209	0.00535369873046875	1.17584228515625
503	1.17431640625	298.187912247148	0.00533477783203125	1.17279052734375
504	1.171875	298.212312247086	0.00531585693359375	1.1712646484375
505	1.16943359375	298.236712247025	0.00529632568359375	1.168212890625
506	1.1669921875	298.261112246963	0.00527679443359375	1.16607666015625
507	1.16455078125	298.285512246901	0.00525634765625	1.16363525390625
508	1.162109375	298.30991224684	0.00523590087890625	1.16119384765625
509	1.15966796875	298.334312246778	0.00521484375	1.158447265625
510	1.1572265625	298.358712246717	0.00519317626953125	1.156005859375
511	1.15478515625	298.383112246655	0.00517120361328125	1.15386962890625
512	1.15234375	298.407512246593	0.00514862060546875	1.15142822265625
513	1.14990234375	298.431912246532	0.005125732421875	1.148681640625
514	1.1474609375	298.45631224647	0.00510162353515625	1.146240234375
515	1.14501953125	298.480712246409	0.00507720947265625	1.14349365234375
516	1.142578125	298.505112246347	0.00505218505859375	1.141357421875
517	1.14013671875	298.529512246285	0.0050262451171875	1.138916015625
518	1.1376953125	298.553912246224	0.0049993896484375	1.13677978515625
519	1.13525390625	298.578312246162	0.00497161865234375	1.1346435546875
520	1.1328125	298.602712246101	0.00494354248046875	1.131591796875
521	1.13037109375	298.627112246039	0.00491424560546875	1.12945556640625
522	1.1279296875	298.651512245977	0.004884033203125	1.12701416015625
523	1.12548828125	298.675912245916	0.00485198974609375	1.124267578125
524	1.123046875	298.700312245854	0.00481964111328125	1.121826171875
525	1.12060546875	298.724712245793	0.00478607177734375	1.11907958984375
526	1.1181640625	298.749112245731	0.00475067138671875	1.11663818359375
527	1.11572265625	298.773512245669	0.00471435546875	1.114501953125
528	1.11328125	298.797912245608	0.00467559814453125	1.1114501953125
529	1.11083984375	298.822312245546	0.00463623046875	1.10992431640625
530	1.1083984375	298.846712245485	0.0045947265625	1.1077880859375
531	1.10595703125	298.871112245423	0.00455169677734375	1.104736328125
532	1.103515625	298.895512245361	0.0045062255859375	1.10260009765625
533	1.10107421875	298.9199122453	0.0044586181640625	1.1004638671875
534	1.0986328125	298.944312245238	0.0044097900390625	1.09771728515625
535	1.09619140625	298.968712245177	0.00435821533203125	1.094970703125
536	1.09375	298.993112245115	0.0043048095703125	1.09283447265625
537	1.09130859375	299.017512245053	0.00424835205078125	1.09039306640625
538	1.0888671875	299.041912244992	0.00419097900390625	1.08795166015625
539	1.08642578125	299.06631224493	0.00413116455078125	1.0858154296875
540	1.083984375	299.090712244869	0.00407012939453125	1.082763671875
541	1.08154296875	299.115112244807	0.004007568359375	1.080322265625
542	1.0791015625	299.139512244745	0.00394256591796875	1.07818603515625
543	1.07666015625	299.163912244684	0.00387786865234375	1.07513427734375
544	1.07421875	299.188312244622	0.0038116455078125	1.07330322265625
545	1.07177734375	299.212712244561	0.00374603271484375	1.07086181640625
546	1.0693359375	299.237112244499	0.00367889404296875	1.068115234375
547	1.06689453125	299.261512244437	0.0036126708984375	1.0662841796875
548	1.064453125	299.285912244376	0.00354705810546875	1.063232421875
549	1.06201171875	299.310312244314	0.00348052978515625	1.0614013671875
550	1.0595703125	299.334712244253	0.003414306640625	1.058349609375
551	1.05712890625	299.359112244191	0.003348388671875	1.05621337890625
552	1.0546875	299.383512244129	0.00328338623046875	1.05438232421875
553	1.05224609375	299.407912244068	0.0032183837890625	1.05072021484375
554	1.0498046875	299.432312244006	0.00315582275390625	1.04888916015625
555	1.04736328125	299.456712243944	0.003092041015625	1.046142578125
556	1.044921875	299.481112243883	0.00303009033203125	1.043701171875
557	1.04248046875	299.505512243821	0.002969970703125	1.041259765625
558	1.0400390625	299.52991224376	0.002908935546875	1.038818359375
559	1.03759765625	299.554312243698	0.00284912109375	1.036376953125
560	1.03515625	299.578712243636	0.00279052734375	1.033935546875
561	1.03271484375	299.603112243575	0.00273284912109375	1.03179931640625
562	1.0302734375	299.627512243513	0.0026763916015625	1.02935791015625
563	1.02783203125	299.651912243452	0.00261993408203125	1.026611328125
564	1.025390625	299.67631224339	0.00256500244140625	1.02447509765625
565	1.02294921875	299.700712243328	0.00251068115234375	1.0223388671875
566	1.0205078125	299.725112243267	0.0024578857421875	1.019287109375
567	1.01806640625	299.749512243205	0.002406005859375	1.01715087890625
568	1.015625	299.773912243144	0.00235504150390625	1.01470947265625
569	1.01318359375	299.798312243082	0.00230438232421875	1.01226806640625
570	1.0107421875	299.82271224302	0.00225433349609375	1.00982666015625
571	1.00830078125	299.847112242959	0.0022076416015625	1.0076904296875
572	1.005859375	299.871512242897	0.00215972900390625	1.0052490234375
573	1.00341796875	299.895912242836	0.00211273193359375	1.0028076171875
574	1.0009765625	299.920312242774	0.0020660400390625	1.00006103515625
575	0.99853515625	299.944712242712	0.0020220947265625	0.997314453125
576	0.99609375	299.969112242651	0.00197784423828125	0.994873046875
577	0.99365234375	299.993512242589	0.00193450927734375	0.99273681640625
578	0.9912109375	300.017912242528	0.00189178466796875	0.9906005859375
579	0.98876953125	300.042312242466	0.00185150146484375	0.9881591796875
580	0.986328125	300.066712242404	0.00181121826171875	0.9857177734375
581	0.98388671875	300.091112242343	0.0017718505859375	0.9832763671875
582	0.9814453125	300.115512242281	0.0017327880859375	0.980224609375
583	0.97900390625	300.13991224222	0.00169403076171875	0.9783935546875
584	0.9765625	300.164312242158	0.0016571044921875	0.9759521484375
585	0.97412109375	300.188712242096	0.00162109375	0.97320556640625
586	0.9716796875	300.213112242035	0.00158599853515625	0.970458984375
587	0.96923828125	300.237512241973	0.00155059814453125	0.9686279296875
588	0.966796875	300.261912241912	0.00151611328125	0.9661865234375
589	0.96435546875	300.28631224185	0.0014849853515625	0.9637451171875
590	0.9619140625	300.310712241788	0.0014532470703125	0.96099853515625
591	0.95947265625	300.335112241727	0.0014215087890625	0.9588623046875
592	0.95703125	300.359512241665	0.0013909912109375	0.955810546875
593	0.95458984375	300.383912241604	0.00136199951171875	0.953369140625
594	0.9521484375	300.408312241542	0.001331787109375	0.950927734375
595	0.94970703125	300.43271224148	0.001304931640625	0.94879150390625
596	0.947265625	300.457112241419	0.00127777099609375	0.946044921875
597	0.94482421875	300.481512241357	0.00125091552734375	0.94329833984375
598	0.9423828125	300.505912241296	0.00122528076171875	0.941162109375
599	0.93994140625	300.530312241234	0.001199951171875	0.9393310546875
600	0.9375	300.554712241172	0.00117523193359375	0.93658447265625
601	0.93505859375	300.579112241111	0.001151123046875	0.93414306640625
602	0.9326171875	300.603512241049	0.00112762451171875	0.93170166015625
603	0.93017578125	300.627912240987	0.0011041259765625	0.9295654296875
604	0.927734375	300.652312240926	0.0010821533203125	0.926513671875
605	0.92529296875	300.676712240864	0.00105987548828125	0.924072265625
606	0.9228515625	300.701112240803	0.0010382080078125	0.92193603515625
607	0.92041015625	300.725512240741	0.0010174560546875	0.9197998046875
608	0.91796875	300.749912240679	0.0009979248046875	0.91705322265625
609	0.91552734375	300.774312240618	0.00097747802734375	0.91522216796875
610	0.9130859375	300.798712240556	0.000958251953125	0.911865234375
611	0.91064453125	300.823112240495	0.0009405517578125	0.90972900390625
612	0.908203125	300.847512240433	0.00092193603515625	0.90728759765625
613	0.90576171875	300.871912240371	0.00090423583984375	0.90484619140625
614	0.9033203125	300.89631224031	0.0008868408203125	0.90240478515625
615	0.90087890625	300.920712240248	0.000870361328125	0.899658203125
616	0.8984375	300.945112240187	0.0008526611328125	0.897216796875
617	0.89599609375	300.969512240125	0.0008380126953125	0.894775390625
618	0.8935546875	300.993912240063	0.00082244873046875	0.8929443359375
619	0.89111328125	301.018312240002	0.0008050537109375	0.89019775390625
620	0.888671875	301.04271223994	0.000792236328125	0.88775634765625
621	0.88623046875	301.067112239879	0.00077667236328125	0.88531494140625
622	0.8837890625	301.091512239817	0.000762939453125	0.88226318359375
623	0.88134765625	301.115912239755	0.00074920654296875	0.8807373046875
624	0.87890625	301.140312239694	0.00073516845703125	0.8782958984375
625	0.87646484375	301.164712239632	0.00072235107421875	0.87554931640625
626	0.8740234375	301.189112239571	0.0007086181640625	0.87310791015625
627	0.87158203125	301.213512239509	0.00069580078125	0.870361328125
628	0.869140625	301.237912239447	0.00068328857421875	0.867919921875
629	0.86669921875	301.262312239386	0.00067108154296875	0.8660888671875
630	0.8642578125	301.286712239324	0.0006585693359375	0.863037109375
631	0.86181640625	301.311112239263	0.00064697265625	0.86151123046875
632	0.859375	301.335512239201	0.00063507080078125	0.8587646484375
633	0.85693359375	301.359912239139	0.000623779296875	0.85601806640625
634	0.8544921875	301.384312239078	0.00061248779296875	0.85418701171875
635	0.85205078125	301.408712239016	0.00060211181640625	0.85174560546875
636	0.849609375	301.433112238955	0.00059051513671875	0.848388671875
637	0.84716796875	301.457512238893	0.00057952880859375	0.8465576171875
638	0.8447265625	301.481912238831	0.00057037353515625	0.8441162109375
639	0.84228515625	301.50631223877	0.00056060791015625	0.84136962890625
640	0.83984375	301.530712238708	0.00055023193359375	0.838623046875
641	0.83740234375	301.555112238647	0.00054046630859375	0.8367919921875
642	0.8349609375	301.579512238585	0.00053192138671875	0.8343505859375
643	0.83251953125	301.603912238523	0.00052398681640625	0.831298828125
644	0.830078125	301.628312238462	0.0005133056640625	0.82916259765625
645	0.82763671875	301.6527122384	0.0005047607421875	0.8270263671875
646	0.8251953125	301.677112238339	0.000495147705078125	0.82427978515625
647	0.82275390625	301.701512238277	0.00048724365234375	0.821533203125
648	0.8203125	301.725912238215	0.0004775390625	0.8197021484375
649	0.81787109375	301.750312238154	0.000469940185546875	0.816650390625
650	0.8154296875	301.774712238092	0.000461517333984375	0.814208984375
651	0.81298828125	301.79911223803	0.0004521484375	0.811767578125
652	0.810546875	301.823512237969	0.000445648193359375	0.81024169921875
653	0.80810546875	301.847912237907	0.000436920166015625	0.806884765625
654	0.8056640625	301.872312237846	0.00043048095703125	0.80474853515625
655	0.80322265625	301.896712237784	0.0004217529296875	0.80230712890625
656	0.80078125	301.921112237722	0.000414794921875	0.8001708984375
657	0.79833984375	301.945512237661	0.0004085693359375	0.797119140625
658	0.7958984375	301.969912237599	0.000400665283203125	0.79498291015625
659	0.79345703125	301.994312237538	0.00039361572265625	0.79254150390625
660	0.791015625	302.018712237476	0.000386199951171875	0.7904052734375
661	0.78857421875	302.043112237414	0.000380096435546875	0.78704833984375
662	0.7861328125	302.067512237353	0.00037274169921875	0.78521728515625
663	0.78369140625	302.091912237291	0.00036639404296875	0.78277587890625
664	0.78125	302.11631223723	0.00036016845703125	0.78094482421875
665	0.77880859375	302.140712237168	0.000353302001953125	0.7781982421875
666	0.7763671875	302.165112237106	0.00034783935546875	0.7763671875
667	0.77392578125	302.189512237045	0.00034075927734375	0.7733154296875
668	0.771484375	302.213912236983	0.000335845947265625	0.77056884765625
669	0.76904296875	302.238312236922	0.000329864501953125	0.7684326171875
670	0.7666015625	302.26271223686	0.000323211669921875	0.76629638671875
671	0.76416015625	302.287112236798	0.0003173828125	0.76324462890625
672	0.76171875	302.311512236737	0.000312225341796875	0.7611083984375
673	0.75927734375	302.335912236675	0.000306304931640625	0.7586669921875
674	0.7568359375	302.360312236614	0.00030072021484375	0.75592041015625
675	0.75439453125	302.384712236552	0.000295562744140625	0.75408935546875
676	0.751953125	302.40911223649	0.00028973388671875	0.75103759765625
677	0.74951171875	302.433512236429	0.000285736083984375	0.74932861328125
678	0.7470703125	302.457912236367	0.000277862548828125	0.746826171875
679	0.74462890625	302.482312236306	0.00027386474609375	0.74432373046875
680	0.7421875	302.506712236244	0.000269744873046875	0.74188232421875
681	0.73974609375	302.531112236182	0.00026409912109375	0.739532470703125
682	0.7373046875	302.555512236121	0.000258087158203125	0.737060546875
683	0.73486328125	302.579912236059	0.000253082275390625	0.734619140625
684	0.732421875	302.604312235998	0.00024951171875	0.732177734375
685	0.72998046875	302.628712235936	0.000244354248046875	0.729827880859375
686	0.7275390625	302.653112235874	0.000240509033203125	0.72735595703125
687	0.72509765625	302.677512235813	0.000236358642578125	0.72491455078125
688	0.72265625	302.701912235751	0.00023095703125	0.722442626953125
689	0.72021484375	302.72631223569	0.000227813720703125	0.72003173828125
690	0.7177734375	302.750712235628	0.000223114013671875	0.71759033203125
691	0.71533203125	302.775112235566	0.000218414306640625	0.715118408203125
692	0.712890625	302.799512235505	0.000213165283203125	0.712646484375
693	0.71044921875	302.823912235443	0.000209716796875	0.71026611328125
694	0.7080078125	302.848312235382	0.000205352783203125	0.707794189453125
695	0.70556640625	302.87271223532	0.000202178955078125	0.70538330078125
696	0.703125	302.897112235258	0.000197357177734375	0.70294189453125
697	0.70068359375	302.921512235197	0.00019281005859375	0.700469970703125
698	0.6982421875	302.945912235135	0.00019000244140625	0.698089599609375
699	0.69580078125	302.970312235073	0.000185028076171875	0.695556640625
700	0.693359375	302.994712235012	0.0001822509765625	0.693206787109375
701	0.69091796875	303.01911223495	0.00017840576171875	0.69073486328125
702	0.6884765625	303.043512234889	0.000175384521484375	0.68829345703125
703	0.68603515625	303.067912234827	0.000171173095703125	0.68585205078125
704	0.68359375	303.092312234765	0.000167388916015625	0.68341064453125
705	0.68115234375	303.116712234704	0.0001650390625	0.680999755859375
706	0.6787109375	303.141112234642	0.000160064697265625	0.678497314453125
707	0.67626953125	303.165512234581	0.000157501220703125	0.67608642578125
708	0.673828125	303.189912234519	0.000153839111328125	0.673736572265625
709	0.67138671875	303.214312234457	0.00015118408203125	0.671295166015625
710	0.6689453125	303.238712234396	0.000147857666015625	0.6688232421875
711	0.66650390625	303.263112234334	0.00014447021484375	0.6663818359375
712	0.6640625	303.287512234273	0.000142791748046875	0.6639404296875
713	0.66162109375	303.311912234211	0.000138641357421875	0.6614990234375
714	0.6591796875	303.336312234149	0.000136260986328125	0.65899658203125
715	0.65673828125	303.360712234088	0.000132049560546875	0.656585693359375
716	0.654296875	303.385112234026	0.0001298828125	0.65411376953125
717	0.65185546875	303.409512233965	0.0001268310546875	0.6517333984375
718	0.6494140625	303.433912233903	0.000124359130859375	0.6492919921875
719	0.64697265625	303.458312233841	0.00012255859375	0.6468505859375
720	0.64453125	303.48271223378	0.000118438720703125	0.644439697265625
721	0.64208984375	303.507112233718	0.000116546630859375	0.64190673828125
722	0.6396484375	303.531512233657	0.00011297607421875	0.6395263671875
723	0.63720703125	303.555912233595	0.000112518310546875	0.6370849609375
724	0.634765625	303.580312233533	0.00010870361328125	0.63470458984375
725	0.63232421875	303.604712233472	0.00010723876953125	0.63226318359375
726	0.6298828125	303.62911223341	0.00010467529296875	0.6297607421875
727	0.62744140625	303.653512233349	0.000102294921875	0.6273193359375
728	0.625	303.677912233287	0.00010125732421875	0.62493896484375
729	0.62255859375	303.702312233225	9.7930908203125E-05	0.62249755859375
730	0.6201171875	303.726712233164	9.6649169921875E-05	0.620025634765625
731	0.61767578125	303.751112233102	9.3475341796875E-05	0.61761474609375
732	0.615234375	303.775512233041	9.185791015625E-05	0.615142822265625
733	0.61279296875	303.799912232979	9.0179443359375E-05	0.61273193359375
734	0.6103515625	303.824312232917	8.7677001953125E-05	0.610076904296875
735	0.60791015625	303.848712232856	8.6761474609375E-05	0.607757568359375
736	0.60546875	303.873112232794	8.477783203125E-05	0.605255126953125
737	0.60302734375	303.897512232733	8.380126953125E-05	0.602874755859375
738	0.6005859375	303.921912232671	7.9742431640625E-05	0.6004638671875
739	0.59814453125	303.946312232609	7.9376220703125E-05	0.59796142578125
740	0.595703125	303.970712232548	7.6934814453125E-05	0.59552001953125
741	0.59326171875	303.995112232486	7.501220703125E-05	0.59307861328125
742	0.5908203125	304.019512232425	7.3150634765625E-05	0.59063720703125
743	0.58837890625	304.043912232363	7.098388671875E-05	0.588165283203125
744	0.5859375	304.068312232301	7.0159912109375E-05	0.585723876953125
745	0.58349609375	304.09271223224	6.7169189453125E-05	0.583251953125
746	0.5810546875	304.117112232178	6.768798828125E-05	0.58087158203125
747	0.57861328125	304.141512232116	6.45751953125E-05	0.57843017578125
748	0.576171875	304.165912232055	6.378173828125E-05	0.57598876953125
749	0.57373046875	304.190312231993	6.2286376953125E-05	0.57354736328125
750	0.5712890625	304.214712231932	5.99365234375E-05	0.571136474609375
751	0.56884765625	304.23911223187	5.9173583984375E-05	0.568695068359375
752	0.56640625	304.263512231808	5.7464599609375E-05	0.566253662109375
753	0.56396484375	304.287912231747	5.67626953125E-05	0.5638427734375
754	0.5615234375	304.312312231685	5.4412841796875E-05	0.561370849609375
755	0.55908203125	304.336712231624	5.3558349609375E-05	0.5589599609375
756	0.556640625	304.361112231562	5.2978515625E-05	0.5565185546875
757	0.55419921875	304.3855122315	5.1544189453125E-05	0.5540771484375
758	0.5517578125	304.409912231439	5.0445556640625E-05	0.5516357421875
759	0.54931640625	304.434312231377	4.859619140625E-05	0.549163818359375
760	0.546875	304.458712231316	4.87030029296875E-05	0.546783447265625
761	0.54443359375	304.483112231254	4.63653564453125E-05	0.5443115234375
762	0.5419921875	304.507512231192	4.6051025390625E-05	0.541900634765625
763	0.53955078125	304.531912231131	4.4110107421875E-05	0.53936767578125
764	0.537109375	304.556312231069	4.38201904296875E-05	0.5369873046875
765	0.53466796875	304.580712231008	4.24468994140625E-05	0.53448486328125
766	0.5322265625	304.605112230946	3.98681640625E-05	0.532073974609375
767	0.52978515625	304.629512230884	4.07928466796875E-05	0.529693603515625
768	0.52734375	304.653912230823	3.89801025390625E-05	0.52716064453125
769	0.52490234375	304.678312230761	3.9129638671875E-05	0.5247802734375
770	0.5224609375	304.7027122307	3.720703125E-05	0.522308349609375
771	0.52001953125	304.727112230638	3.67034912109375E-05	0.5198974609375
772	0.517578125	304.751512230576	3.54736328125E-05	0.517486572265625
773	0.51513671875	304.775912230515	3.40850830078125E-05	0.5150146484375
774	0.5126953125	304.800312230453	3.3624267578125E-05	0.512542724609375
775	0.51025390625	304.824712230392	3.143310546875E-05	0.510162353515625
776	0.5078125	304.84911223033	3.175048828125E-05	0.5076904296875
777	0.50537109375	304.873512230268	3.0364990234375E-05	0.5052490234375
778	0.5029296875	304.897912230207	2.97943115234375E-05	0.502838134765625
779	0.50048828125	304.922312230145	2.87994384765625E-05	0.5003662109375
780	0.498046875	304.946712230084	2.81097412109375E-05	0.49798583984375
781	0.49560546875	304.971112230022	2.82073974609375E-05	0.495513916015625
782	0.4931640625	304.99551222996	2.65625E-05	0.49310302734375
783	0.49072265625	305.019912229899	2.677001953125E-05	0.490692138671875
784	0.48828125	305.044312229837	2.4639892578125E-05	0.4881591796875
785	0.48583984375	305.068712229776	2.48443603515625E-05	0.485748291015625
786	0.4833984375	305.093112229714	2.3455810546875E-05	0.4832763671875
787	0.48095703125	305.117512229652	2.3175048828125E-05	0.480865478515625
788	0.478515625	305.141912229591	2.24212646484375E-05	0.47845458984375
789	0.47607421875	305.166312229529	2.09259033203125E-05	0.47601318359375
790	0.4736328125	305.190712229468	2.1630859375E-05	0.473541259765625
791	0.47119140625	305.215112229406	1.94183349609375E-05	0.471099853515625
792	0.46875	305.239512229344	1.92962646484375E-05	0.46868896484375
793	0.46630859375	305.263912229283	1.8310546875E-05	0.466278076171875
794	0.4638671875	305.288312229221	1.8060302734375E-05	0.46380615234375
795	0.46142578125	305.31271222916	1.74102783203125E-05	0.461334228515625
796	0.458984375	305.337112229098	1.6900634765625E-05	0.45892333984375
797	0.45654296875	305.361512229036	1.69921875E-05	0.456512451171875
798	0.4541015625	305.385912228975	1.47796630859375E-05	0.45404052734375
799	0.45166015625	305.410312228913	1.53076171875E-05	0.451629638671875
800	0.44921875	305.434712228851	1.475830078125E-05	0.44915771484375
801	0.44677734375	305.45911222879	1.5142822265625E-05	0.446746826171875
802	0.4443359375	305.483512228728	1.36383056640625E-05	0.4443359375
803	0.44189453125	305.507912228667	1.25518798828125E-05	0.441864013671875
804	0.439453125	305.532312228605	1.2451171875E-05	0.439453125
805	0.43701171875	305.556712228543	1.065673828125E-05	0.436981201171875
806	0.4345703125	305.581112228482	1.1871337890625E-05	0.434539794921875
807	0.43212890625	305.60551222842	1.03240966796875E-05	0.43206787109375
808	0.4296875	305.629912228359	1.07086181640625E-05	0.4295654296875
809	0.42724609375	305.654312228297	9.283447265625E-06	0.42724609375
810	0.4248046875	305.678712228235	9.5306396484375E-06	0.4248046875
811	0.42236328125	305.703112228174	9.3231201171875E-06	0.42236328125
812	0.419921875	305.727512228112	7.855224609375E-06	0.419921875
813	0.41748046875	305.751912228051	8.0047607421875E-06	0.417449951171875
814	0.4150390625	305.776312227989	6.573486328125E-06	0.41485595703125
815	0.41259765625	305.800712227927	7.269287109375E-06	0.412506103515625
816	0.41015625	305.825112227866	5.8074951171875E-06	0.410064697265625
817	0.40771484375	305.849512227804	5.5023193359375E-06	0.40765380859375
818	0.4052734375	305.873912227743	5.2703857421875E-06	0.405242919921875
819	0.40283203125	305.898312227681	4.72412109375E-06	0.402740478515625
820	0.400390625	305.922712227619	4.437255859375E-06	0.400299072265625
821	0.39794921875	305.947112227558	3.08929443359375E-06	0.39788818359375
822	0.3955078125	305.971512227496	4.67529296875E-06	0.395416259765625
823	0.39306640625	305.995912227435	3.09295654296875E-06	0.3929443359375
824	0.390625	306.020312227373	3.13812255859375E-06	0.39056396484375
825	0.38818359375	306.044712227311	2.4591064453125E-06	0.388092041015625
826	0.3857421875	306.06911222725	1.9061279296875E-06	0.385650634765625
827	0.38330078125	306.093512227188	2.14019775390625E-06	0.38323974609375
828	0.380859375	306.117912227127	8.9080810546875E-07	0.38092041015625
829	0.37841796875	306.142312227065	1.94244384765625E-06	0.37841796875
830	0.3759765625	306.166712227003	-2.3712158203125E-07	0.376007080078125
831	0.37353515625	306.191112226942	2.1820068359375E-07	0.373565673828125
832	0.37109375	306.21551222688	-5.31005859375E-08	0.37109375
833	0.36865234375	306.239912226819	-7.940673828125E-07	0.36865234375
834	0.3662109375	306.264312226757	-8.990478515625E-07	0.3662109375
835	0.36376953125	306.288712226695	-1.89727783203125E-06	0.3641357421875
836	0.361328125	306.313112226634	-1.28143310546875E-06	0.361602783203125
837	0.35888671875	306.337512226572	-2.78656005859375E-06	0.359130859375
838	0.3564453125	306.361912226511	-2.08740234375E-06	0.35693359375
839	0.35400390625	306.386312226449	-2.9400634765625E-06	0.354217529296875
840	0.3515625	306.410712226387	-3.39569091796875E-06	0.352386474609375
841	0.34912109375	306.435112226326	-3.753662109375E-06	0.349029541015625
842	0.3466796875	306.459512226264	-4.5562744140625E-06	0.3466796875
843	0.34423828125	306.483912226203	-4.23583984375E-06	0.344390869140625
844	0.341796875	306.508312226141	-5.615234375E-06	0.341796875
845	0.33935546875	306.532712226079	-4.827880859375E-06	0.339385986328125
846	0.3369140625	306.557112226018	-6.38427734375E-06	0.3369140625
847	0.33447265625	306.581512225956	-6.4697265625E-06	0.33453369140625
848	0.33203125	306.605912225894	-6.9000244140625E-06	0.332061767578125
849	0.32958984375	306.630312225833	-7.3455810546875E-06	0.3297119140625
850	0.3271484375	306.654712225771	-6.964111328125E-06	0.32720947265625
851	0.32470703125	306.67911222571	-8.209228515625E-06	0.32476806640625
852	0.322265625	306.703512225648	-7.183837890625E-06	0.32232666015625
853	0.31982421875	306.727912225586	-9.0545654296875E-06	0.319854736328125
854	0.3173828125	306.752312225525	-8.3343505859375E-06	0.317474365234375
855	0.31494140625	306.776712225463	-9.1278076171875E-06	0.315032958984375
856	0.3125	306.801112225402	-9.649658203125E-06	0.312652587890625
857	0.31005859375	306.82551222534	-9.4390869140625E-06	0.310150146484375
858	0.3076171875	306.849912225278	-1.0614013671875E-05	0.3077392578125
859	0.30517578125	306.874312225217	-9.7503662109375E-06	0.3052978515625
860	0.302734375	306.898712225155	-1.156005859375E-05	0.3028564453125
861	0.30029296875	306.923112225094	-1.1004638671875E-05	0.3004150390625
862	0.2978515625	306.947512225032	-1.202392578125E-05	0.298004150390625
863	0.29541015625	306.97191222497	-1.18011474609375E-05	0.295623779296875
864	0.29296875	306.996312224909	-1.2152099609375E-05	0.2930908203125
865	0.29052734375	307.020712224847	-1.329345703125E-05	0.29071044921875
866	0.2880859375	307.045112224786	-1.199951171875E-05	0.28826904296875
867	0.28564453125	307.069512224724	-1.35528564453125E-05	0.285797119140625
868	0.283203125	307.093912224662	-1.3116455078125E-05	0.28338623046875
869	0.28076171875	307.118312224601	-1.375732421875E-05	0.280975341796875
870	0.2783203125	307.142712224539	-1.37176513671875E-05	0.278533935546875
871	0.27587890625	307.167112224478	-1.4361572265625E-05	0.276092529296875
872	0.2734375	307.191512224416	-1.50787353515625E-05	0.27362060546875
873	0.27099609375	307.215912224354	-1.47796630859375E-05	0.271148681640625
874	0.2685546875	307.240312224293	-1.60858154296875E-05	0.268768310546875
875	0.26611328125	307.264712224231	-1.53411865234375E-05	0.266326904296875
876	0.263671875	307.28911222417	-1.71417236328125E-05	0.263916015625
877	0.26123046875	307.313512224108	-1.6607666015625E-05	0.261474609375
878	0.2587890625	307.337912224046	-1.737060546875E-05	0.259002685546875
879	0.25634765625	307.362312223985	-1.75689697265625E-05	0.256591796875
880	0.25390625	307.386712223923	-1.75628662109375E-05	0.254119873046875
881	0.25146484375	307.411112223862	-1.87896728515625E-05	0.251739501953125
882	0.2490234375	307.4355122238	-1.76177978515625E-05	0.249267578125
883	0.24658203125	307.459912223738	-1.95068359375E-05	0.246856689453125
884	0.244140625	307.484312223677	-1.85302734375E-05	0.244415283203125
885	0.24169921875	307.508712223615	-1.97784423828125E-05	0.241912841796875
886	0.2392578125	307.533112223554	-1.9775390625E-05	0.23956298828125
887	0.23681640625	307.557512223492	-1.97235107421875E-05	0.237030029296875
888	0.234375	307.58191222343	-2.04345703125E-05	0.234649658203125
889	0.23193359375	307.606312223369	-1.96929931640625E-05	0.232177734375
890	0.2294921875	307.630712223307	-2.139892578125E-05	0.229736328125
891	0.22705078125	307.655112223246	-2.0672607421875E-05	0.22735595703125
892	0.224609375	307.679512223184	-2.1441650390625E-05	0.22491455078125
893	0.22216796875	307.703912223122	-2.0947265625E-05	0.222503662109375
894	0.2197265625	307.728312223061	-2.16827392578125E-05	0.220001220703125
895	0.21728515625	307.752712222999	-2.235107421875E-05	0.217620849609375
896	0.21484375	307.777112222937	-2.210693359375E-05	0.21514892578125
897	0.21240234375	307.801512222876	-2.2967529296875E-05	0.21270751953125
898	0.2099609375	307.825912222814	-2.2186279296875E-05	0.21026611328125
899	0.20751953125	307.850312222753	-2.39227294921875E-05	0.207794189453125
900	0.205078125	307.874712222691	-2.31597900390625E-05	0.205413818359375
901	0.20263671875	307.899112222629	-2.38983154296875E-05	0.2030029296875
902	0.2001953125	307.923512222568	-2.43072509765625E-05	0.200592041015625
903	0.19775390625	307.947912222506	-2.41607666015625E-05	0.1981201171875
904	0.1953125	307.972312222445	-2.5665283203125E-05	0.195709228515625
905	0.19287109375	307.996712222383	-2.50579833984375E-05	0.1932373046875
906	0.1904296875	308.021112222321	-2.6263427734375E-05	0.190765380859375
907	0.18798828125	308.04551222226	-2.54364013671875E-05	0.1884765625
908	0.185546875	308.069912222198	-2.6763916015625E-05	0.185943603515625
909	0.18310546875	308.094312222137	-2.66387939453125E-05	0.18353271484375
910	0.1806640625	308.118712222075	-2.672119140625E-05	0.1810302734375
911	0.17822265625	308.143112222013	-2.769775390625E-05	0.178680419921875
912	0.17578125	308.167512221952	-2.6971435546875E-05	0.17626953125
913	0.17333984375	308.19191222189	-2.8564453125E-05	0.17376708984375
914	0.1708984375	308.216312221829	-2.77862548828125E-05	0.171356201171875
915	0.16845703125	308.240712221767	-2.8973388671875E-05	0.1688232421875
916	0.166015625	308.265112221705	-2.87200927734375E-05	0.16656494140625
917	0.16357421875	308.289512221644	-2.943115234375E-05	0.164031982421875
918	0.1611328125	308.313912221582	-3.00140380859375E-05	0.161651611328125
919	0.15869140625	308.338312221521	-2.9632568359375E-05	0.15869140625
920	0.15625	308.362712221459	-3.0615234375E-05	0.156341552734375
921	0.15380859375	308.387112221397	-2.9656982421875E-05	0.15386962890625
922	0.1513671875	308.411512221336	-3.10394287109375E-05	0.1514892578125
923	0.14892578125	308.435912221274	-3.02764892578125E-05	0.14898681640625
924	0.146484375	308.460312221213	-3.11279296875E-05	0.14654541015625
925	0.14404296875	308.484712221151	-3.1329345703125E-05	0.144134521484375
926	0.1416015625	308.509112221089	-3.1439208984375E-05	0.1417236328125
927	0.13916015625	308.533512221028	-3.25164794921875E-05	0.139251708984375
928	0.13671875	308.557912220966	-3.17108154296875E-05	0.136810302734375
929	0.13427734375	308.582312220905	-3.30108642578125E-05	0.134368896484375
930	0.1318359375	308.606712220843	-3.2244873046875E-05	0.131927490234375
931	0.12939453125	308.631112220781	-3.34808349609375E-05	0.129486083984375
932	0.126953125	308.65551222072	-3.34747314453125E-05	0.12701416015625
933	0.12451171875	308.679912220658	-3.3740234375E-05	0.1246337890625
934	0.1220703125	308.704312220597	-3.45123291015625E-05	0.122222900390625
935	0.11962890625	308.728712220535	-3.3892822265625E-05	0.119781494140625
936	0.1171875	308.753112220473	-3.54522705078125E-05	0.117279052734375
937	0.11474609375	308.777512220412	-3.4686279296875E-05	0.1148681640625
938	0.1123046875	308.80191222035	-3.59222412109375E-05	0.112457275390625
939	0.10986328125	308.826312220289	-3.53912353515625E-05	0.1099853515625
940	0.107421875	308.850712220227	-3.607177734375E-05	0.10760498046875
941	0.10498046875	308.875112220165	-3.677978515625E-05	0.1051025390625
942	0.1025390625	308.899512220104	-3.634033203125E-05	0.102691650390625
943	0.10009765625	308.923912220042	-3.77593994140625E-05	0.10015869140625
944	0.09765625	308.94831221998	-3.6865234375E-05	0.0977783203125
945	0.09521484375	308.972712219919	-3.82537841796875E-05	0.095306396484375
946	0.0927734375	308.997112219857	-3.8116455078125E-05	0.09283447265625
947	0.09033203125	309.021512219796	-3.85284423828125E-05	0.090423583984375
948	0.087890625	309.045912219734	-3.8787841796875E-05	0.0880126953125
949	0.08544921875	309.070312219672	-3.88092041015625E-05	0.085540771484375
950	0.0830078125	309.094712219611	-4.00909423828125E-05	0.08306884765625
951	0.08056640625	309.119112219549	-3.92242431640625E-05	0.080657958984375
952	0.078125	309.143512219488	-4.05364990234375E-05	0.0782470703125
953	0.07568359375	309.167912219426	-3.96881103515625E-05	0.0758056640625
954	0.0732421875	309.192312219364	-4.06829833984375E-05	0.073394775390625
955	0.07080078125	309.216712219303	-4.0911865234375E-05	0.0709228515625
956	0.068359375	309.241112219241	-4.08966064453125E-05	0.068450927734375
957	0.06591796875	309.26551221918	-4.16473388671875E-05	0.0660400390625
958	0.0634765625	309.289912219118	-4.100341796875E-05	0.063568115234375
959	0.06103515625	309.314312219056	-4.25018310546875E-05	0.0611572265625
960	0.05859375	309.338712218995	-4.16412353515625E-05	0.058746337890625
961	0.05615234375	309.363112218933	-4.25384521484375E-05	0.056304931640625
962	0.0537109375	309.387512218872	-4.2242431640625E-05	0.0538330078125
963	0.05126953125	309.41191221881	-4.27581787109375E-05	0.051422119140625
964	0.048828125	309.436312218748	-4.35302734375E-05	0.0489837646484375
965	0.04638671875	309.460712218687	-4.30206298828125E-05	0.04654541015625
966	0.0439453125	309.485112218625	-4.42626953125E-05	0.044097900390625
967	0.04150390625	309.509512218564	-4.3310546875E-05	0.041668701171875
968	0.0390625	309.533912218502	-4.47723388671875E-05	0.0392059326171875
969	0.03662109375	309.55831221844	-4.4427490234375E-05	0.0367706298828125
970	0.0341796875	309.582712218379	-4.4970703125E-05	0.0343048095703125
971	0.03173828125	309.607112218317	-4.54132080078125E-05	0.03189697265625
972	0.029296875	309.631512218256	-4.53704833984375E-05	0.0294525146484375
973	0.02685546875	309.655912218194	-4.66705322265625E-05	0.027020263671875
974	0.0244140625	309.680312218132	-4.580078125E-05	0.0245758056640625
975	0.02197265625	309.704712218071	-4.71649169921875E-05	0.0221435546875
976	0.01953125	309.729112218009	-4.6514892578125E-05	0.0196868896484375
977	0.01708984375	309.753512217948	-4.75921630859375E-05	0.0172637939453125
978	0.0146484375	309.777912217886	-4.7821044921875E-05	0.0148040771484375
979	0.01220703125	309.802312217824	-4.79095458984375E-05	0.0123443603515625
980	0.009765625	309.826712217763	-4.88250732421875E-05	0.00991210937500001
981	0.00732421875	309.851112217701	-4.82177734375E-05	0.0074920654296875
982	0.0048828125	309.87551221764	-4.974365234375E-05	0.0050323486328125
983	0.00244140625	309.899912217578	-4.89349365234375E-05	0.002593994140625
984	0	309.924312217516	-4.998779296875E-05	0.000180053710937503
985	0.00244140625	309.948712217455	-4.91943359375E-05	0.0026092529296875
986	0.0048828125	309.973112217393	-4.9041748046875E-05	0.00506591796875
987	0.00732421875	309.997512217332	-4.91943359375E-05	0.00748291015624999
988	0.009765625	310.02191221727	-4.81170654296875E-05	0.00991210937500001
989	0.01220703125	310.046312217208	-4.87335205078125E-05	0.0123809814453125
990	0.0146484375	310.070712217147	-4.720458984375E-05	0.0148193359375
991	0.01708984375	310.095112217085	-4.7967529296875E-05	0.017230224609375
992	0.01953125	310.119512217023	-4.698486328125E-05	0.0196807861328125
993	0.02197265625	310.143912216962	-4.68475341796875E-05	0.02213134765625
