Index	Potential applied (V)	Time (s)	WE(1).Current (A)	WE(1).Potential (V)
1	0.00244140625	6.66893898316255	-5.0689697265625E-05	0.00258483886718749
2	0.0048828125	6.69333898310094	-4.9224853515625E-05	0.005035400390625
3	0.00732421875	6.71773898303934	-4.9896240234375E-05	0.00748596191406251
4	0.009765625	6.74213898297774	-4.853515625E-05	0.00990905761718749
5	0.01220703125	6.76653898291613	-4.8980712890625E-05	0.012359619140625
6	0.0146484375	6.79093898285453	-4.85321044921875E-05	0.01480712890625
7	0.01708984375	6.81533898279292	-4.79705810546875E-05	0.0172393798828125
8	0.01953125	6.83973898273132	-4.82635498046875E-05	0.0196807861328125
9	0.02197265625	6.86413898266972	-4.7015380859375E-05	0.022113037109375
10	0.0244140625	6.88853898260811	-4.7967529296875E-05	0.0245635986328125
11	0.02685546875	6.91293898254651	-4.6484375E-05	0.0269989013671875
12	0.029296875	6.9373389824849	-4.70123291015625E-05	0.029461669921875
13	0.03173828125	6.9617389824233	-4.62005615234375E-05	0.0318939208984375
14	0.0341796875	6.98613898236169	-4.61273193359375E-05	0.0343536376953125
15	0.03662109375	7.01053898230009	-4.63134765625E-05	0.036767578125
16	0.0390625	7.03493898223849	-4.52667236328125E-05	0.0392120361328125
17	0.04150390625	7.05933898217688	-4.59228515625E-05	0.0416473388671875
18	0.0439453125	7.08373898211528	-4.454345703125E-05	0.0441070556640625
19	0.04638671875	7.10813898205367	-4.5379638671875E-05	0.046527099609375
20	0.048828125	7.13253898199207	-4.44091796875E-05	0.0489654541015625
21	0.05126953125	7.15693898193047	-4.444580078125E-05	0.051422119140625
22	0.0537109375	7.18133898186886	-4.427490234375E-05	0.0538330078125
23	0.05615234375	7.20573898180726	-4.3585205078125E-05	0.056304931640625
24	0.05859375	7.23013898174565	-4.42962646484375E-05	0.058685302734375
25	0.06103515625	7.25453898168405	-4.285888671875E-05	0.0611572265625
26	0.0634765625	7.27893898162245	-4.35638427734375E-05	0.063568115234375
27	0.06591796875	7.30333898156084	-4.21173095703125E-05	0.066009521484375
28	0.068359375	7.32773898149924	-4.24652099609375E-05	0.068450927734375
29	0.07080078125	7.35213898143763	-4.2041015625E-05	0.070953369140625
30	0.0732421875	7.37653898137603	-4.1448974609375E-05	0.073333740234375
31	0.07568359375	7.40093898131443	-4.17022705078125E-05	0.075836181640625
32	0.078125	7.42533898125282	-4.044189453125E-05	0.0782470703125
33	0.08056640625	7.44973898119122	-4.122314453125E-05	0.080657958984375
34	0.0830078125	7.47413898112961	-3.98101806640625E-05	0.083099365234375
35	0.08544921875	7.49853898106801	-4.013671875E-05	0.0855712890625
36	0.087890625	7.5229389810064	-3.93646240234375E-05	0.088043212890625
37	0.09033203125	7.5473389809448	-3.90655517578125E-05	0.090423583984375
38	0.0927734375	7.5717389808832	-3.9154052734375E-05	0.092864990234375
39	0.09521484375	7.59613898082159	-3.7982177734375E-05	0.095367431640625
40	0.09765625	7.62053898075999	-3.85467529296875E-05	0.097747802734375
41	0.10009765625	7.64493898069838	-3.704833984375E-05	0.100250244140625
42	0.1025390625	7.66933898063678	-3.79364013671875E-05	0.102691650390625
43	0.10498046875	7.69373898057518	-3.6846923828125E-05	0.1051025390625
44	0.107421875	7.71813898051357	-3.68499755859375E-05	0.107513427734375
45	0.10986328125	7.74253898045197	-3.67706298828125E-05	0.109954833984375
46	0.1123046875	7.76693898039036	-3.59344482421875E-05	0.112396240234375
47	0.11474609375	7.79133898032876	-3.65478515625E-05	0.11480712890625
48	0.1171875	7.81573898026716	-3.5040283203125E-05	0.117340087890625
49	0.11962890625	7.84013898020555	-3.5888671875E-05	0.11968994140625
50	0.1220703125	7.86453898014395	-3.448486328125E-05	0.122161865234375
51	0.12451171875	7.88893898008234	-3.485107421875E-05	0.1246337890625
52	0.126953125	7.91333898002074	-3.4564208984375E-05	0.127044677734375
53	0.12939453125	7.93773897995914	-3.40484619140625E-05	0.129486083984375
54	0.1318359375	7.96213897989753	-3.4417724609375E-05	0.131927490234375
55	0.13427734375	7.98653897983593	-3.30230712890625E-05	0.1343994140625
56	0.13671875	8.01093897977432	-3.39935302734375E-05	0.136871337890625
57	0.13916015625	8.03533897971272	-3.26171875E-05	0.13922119140625
58	0.1416015625	8.05973897965112	-3.2916259765625E-05	0.141754150390625
59	0.14404296875	8.08413897958951	-3.21563720703125E-05	0.1441650390625
60	0.146484375	8.10853897952791	-3.18023681640625E-05	0.1466064453125
61	0.14892578125	8.1329389794663	-3.1982421875E-05	0.148956298828125
62	0.1513671875	8.1573389794047	-3.0877685546875E-05	0.151458740234375
63	0.15380859375	8.18173897934309	-3.140869140625E-05	0.15386962890625
64	0.15625	8.20613897928149	-2.98095703125E-05	0.15631103515625
65	0.15869140625	8.23053897921989	-3.0682373046875E-05	0.15875244140625
66	0.1611328125	8.25493897915828	-2.9486083984375E-05	0.16119384765625
67	0.16357421875	8.27933897909668	-2.91534423828125E-05	0.16363525390625
68	0.166015625	8.30373897903507	-2.90252685546875E-05	0.166107177734375
69	0.16845703125	8.32813897897347	-2.82135009765625E-05	0.168548583984375
70	0.1708984375	8.35253897891187	-2.8955078125E-05	0.17095947265625
71	0.17333984375	8.37693897885026	-2.74688720703125E-05	0.173431396484375
72	0.17578125	8.40133897878866	-2.79632568359375E-05	0.175872802734375
73	0.17822265625	8.42573897872705	-2.6739501953125E-05	0.1783447265625
74	0.1806640625	8.45013897866545	-2.70111083984375E-05	0.180755615234375
75	0.18310546875	8.47453897860385	-2.640380859375E-05	0.183197021484375
76	0.185546875	8.49893897854224	-2.60650634765625E-05	0.185638427734375
77	0.18798828125	8.52333897848064	-2.60284423828125E-05	0.1881103515625
78	0.1904296875	8.54773897841903	-2.47222900390625E-05	0.190521240234375
79	0.19287109375	8.57213897835743	-2.57415771484375E-05	0.19293212890625
80	0.1953125	8.59653897829583	-2.421875E-05	0.19537353515625
81	0.19775390625	8.62093897823422	-2.48382568359375E-05	0.19781494140625
82	0.2001953125	8.64533897817262	-2.39288330078125E-05	0.200286865234375
83	0.20263671875	8.66973897811101	-2.40142822265625E-05	0.202789306640625
84	0.205078125	8.69413897804941	-2.39105224609375E-05	0.205108642578125
85	0.20751953125	8.71853897798781	-2.2686767578125E-05	0.20751953125
86	0.2099609375	8.7429389779262	-2.32879638671875E-05	0.2099609375
87	0.21240234375	8.7673389778646	-2.16094970703125E-05	0.21246337890625
88	0.21484375	8.79173897780299	-2.23907470703125E-05	0.21490478515625
89	0.21728515625	8.81613897774139	-2.17315673828125E-05	0.217376708984375
90	0.2197265625	8.84053897767978	-2.14111328125E-05	0.2197265625
91	0.22216796875	8.86493897761818	-2.10174560546875E-05	0.22222900390625
92	0.224609375	8.88933897755658	-2.04498291015625E-05	0.224700927734375
93	0.22705078125	8.91373897749497	-2.073974609375E-05	0.22705078125
94	0.2294921875	8.93813897743337	-1.95068359375E-05	0.22955322265625
95	0.23193359375	8.96253897737176	-1.95770263671875E-05	0.23199462890625
96	0.234375	8.98693897731016	-1.85455322265625E-05	0.234405517578125
97	0.23681640625	9.01133897724856	-1.89361572265625E-05	0.23681640625
98	0.2392578125	9.03573897718695	-1.800537109375E-05	0.23931884765625
99	0.24169921875	9.06013897712535	-1.7291259765625E-05	0.241729736328125
100	0.244140625	9.08453897706374	-1.7364501953125E-05	0.244171142578125
101	0.24658203125	9.10893897700214	-1.62872314453125E-05	0.246612548828125
102	0.2490234375	9.13333897694054	-1.6815185546875E-05	0.24908447265625
103	0.25146484375	9.15773897687893	-1.54754638671875E-05	0.25152587890625
104	0.25390625	9.18213897681733	-1.59515380859375E-05	0.253936767578125
105	0.25634765625	9.20653897675572	-1.5191650390625E-05	0.256378173828125
106	0.2587890625	9.23093897669412	-1.4532470703125E-05	0.258880615234375
107	0.26123046875	9.25533897663252	-1.47979736328125E-05	0.261260986328125
108	0.263671875	9.27973897657091	-1.39129638671875E-05	0.263702392578125
109	0.26611328125	9.30413897650931	-1.446533203125E-05	0.26617431640625
110	0.2685546875	9.3285389764477	-1.2432861328125E-05	0.268585205078125
111	0.27099609375	9.3529389763861	-1.33697509765625E-05	0.27105712890625
112	0.2734375	9.37733897632449	-1.2261962890625E-05	0.273406982421875
113	0.27587890625	9.40173897626289	-1.21368408203125E-05	0.27593994140625
114	0.2783203125	9.42613897620129	-1.1724853515625E-05	0.27838134765625
115	0.28076171875	9.45053897613968	-1.104736328125E-05	0.28076171875
116	0.283203125	9.47493897607808	-1.15325927734375E-05	0.283233642578125
117	0.28564453125	9.49933897601647	-9.9334716796875E-06	0.28564453125
118	0.2880859375	9.52373897595487	-1.08673095703125E-05	0.288116455078125
119	0.29052734375	9.54813897589327	-9.3414306640625E-06	0.29058837890625
120	0.29296875	9.57253897583166	-9.6221923828125E-06	0.2930908203125
121	0.29541015625	9.59693897577006	-9.4329833984375E-06	0.29547119140625
122	0.2978515625	9.62133897570845	-8.75244140625E-06	0.297821044921875
123	0.30029296875	9.64573897564685	-9.0972900390625E-06	0.300323486328125
124	0.302734375	9.67013897558525	-7.9071044921875E-06	0.302825927734375
125	0.30517578125	9.69453897552364	-8.489990234375E-06	0.305206298828125
126	0.3076171875	9.71893897546204	-6.94580078125E-06	0.307708740234375
127	0.31005859375	9.74333897540043	-7.21435546875E-06	0.31005859375
128	0.3125	9.76773897533883	-6.1248779296875E-06	0.312530517578125
129	0.31494140625	9.79213897527723	-5.914306640625E-06	0.31500244140625
130	0.3173828125	9.81653897521562	-6.011962890625E-06	0.317413330078125
131	0.31982421875	9.84093897515402	-4.779052734375E-06	0.319793701171875
132	0.322265625	9.86533897509241	-5.18798828125E-06	0.322265625
133	0.32470703125	9.88973897503081	-3.3514404296875E-06	0.324798583984375
134	0.3271484375	9.91413897496921	-4.09027099609375E-06	0.327178955078125
135	0.32958984375	9.9385389749076	-3.321533203125E-06	0.32965087890625
136	0.33203125	9.962938974846	-2.9949951171875E-06	0.33203125
137	0.33447265625	9.98733897478439	-2.89154052734375E-06	0.3345947265625
138	0.3369140625	10.0117389747228	-1.73065185546875E-06	0.3370361328125
139	0.33935546875	10.0361389746612	-2.19146728515625E-06	0.33941650390625
140	0.341796875	10.0605389745996	-6.8511962890625E-07	0.341827392578125
141	0.34423828125	10.084938974538	-1.26983642578125E-06	0.344207763671875
142	0.3466796875	10.1093389744764	-1.8341064453125E-07	0.346649169921875
143	0.34912109375	10.1337389744148	-3.16162109375E-07	0.349090576171875
144	0.3515625	10.1581389743532	5.4931640625E-08	0.351593017578125
145	0.35400390625	10.1825389742916	6.7474365234375E-07	0.35400390625
146	0.3564453125	10.20693897423	6.3720703125E-07	0.3564453125
147	0.35888671875	10.2313389741684	1.9708251953125E-06	0.358612060546875
148	0.361328125	10.2557389741067	9.7503662109375E-07	0.36004638671875
149	0.36376953125	10.2801389740451	2.4871826171875E-06	0.36358642578125
150	0.3662109375	10.3045389739835	2.0867919921875E-06	0.365447998046875
151	0.36865234375	10.3289389739219	3.22265625E-06	0.368255615234375
152	0.37109375	10.3533389738603	3.72314453125E-06	0.371002197265625
153	0.37353515625	10.3777389737987	3.7335205078125E-06	0.373504638671875
154	0.3759765625	10.4021389737371	4.827880859375E-06	0.375885009765625
155	0.37841796875	10.4265389736755	4.901123046875E-06	0.378326416015625
156	0.380859375	10.4509389736139	6.353759765625E-06	0.380767822265625
157	0.38330078125	10.4753389735523	5.7373046875E-06	0.383148193359375
158	0.3857421875	10.4997389734907	6.1004638671875E-06	0.38568115234375
159	0.38818359375	10.5241389734291	6.8756103515625E-06	0.388031005859375
160	0.390625	10.5485389733675	7.4676513671875E-06	0.390533447265625
161	0.39306640625	10.5729389733059	8.380126953125E-06	0.392913818359375
162	0.3955078125	10.5973389732443	7.75146484375E-06	0.395355224609375
163	0.39794921875	10.6217389731827	9.326171875E-06	0.397796630859375
164	0.400390625	10.6461389731211	8.660888671875E-06	0.400177001953125
165	0.40283203125	10.6705389730595	1.0406494140625E-05	0.402679443359375
166	0.4052734375	10.6949389729979	1.0064697265625E-05	0.405059814453125
167	0.40771484375	10.7193389729363	1.11846923828125E-05	0.407501220703125
168	0.41015625	10.7437389728747	1.2213134765625E-05	0.409912109375
169	0.41259765625	10.7681389728131	1.19384765625E-05	0.41241455078125
170	0.4150390625	10.7925389727515	1.2744140625E-05	0.414886474609375
171	0.41748046875	10.8169389726899	1.2353515625E-05	0.417205810546875
172	0.419921875	10.8413389726283	1.41998291015625E-05	0.419708251953125
173	0.42236328125	10.8657389725666	1.36749267578125E-05	0.422119140625
174	0.4248046875	10.890138972505	1.51458740234375E-05	0.424591064453125
175	0.42724609375	10.9145389724434	1.50634765625E-05	0.426971435546875
176	0.4296875	10.9389389723818	1.588134765625E-05	0.42938232421875
177	0.43212890625	10.9633389723202	1.70806884765625E-05	0.43182373046875
178	0.4345703125	10.9877389722586	1.67694091796875E-05	0.434326171875
179	0.43701171875	11.012138972197	1.86126708984375E-05	0.436676025390625
180	0.439453125	11.0365389721354	1.76483154296875E-05	0.439056396484375
181	0.44189453125	11.0609389720738	1.8658447265625E-05	0.441558837890625
182	0.4443359375	11.0853389720122	1.90704345703125E-05	0.44390869140625
183	0.44677734375	11.1097389719506	1.91864013671875E-05	0.446441650390625
184	0.44921875	11.134138971889	2.02239990234375E-05	0.448883056640625
185	0.45166015625	11.1585389718274	2.02880859375E-05	0.451263427734375
186	0.4541015625	11.1829389717658	2.17681884765625E-05	0.45367431640625
187	0.45654296875	11.2073389717042	2.0965576171875E-05	0.4560546875
188	0.458984375	11.2317389716426	2.27569580078125E-05	0.45855712890625
189	0.46142578125	11.256138971581	2.2607421875E-05	0.460968017578125
190	0.4638671875	11.2805389715194	2.30987548828125E-05	0.463348388671875
191	0.46630859375	11.3049389714578	2.3992919921875E-05	0.465789794921875
192	0.46875	11.3293389713962	2.45086669921875E-05	0.468231201171875
193	0.47119140625	11.3537389713346	2.64373779296875E-05	0.470611572265625
194	0.4736328125	11.378138971273	2.66357421875E-05	0.4730224609375
195	0.47607421875	11.4025389712114	2.818603515625E-05	0.4754638671875
196	0.478515625	11.4269389711498	2.8363037109375E-05	0.477813720703125
197	0.48095703125	11.4513389710881	2.96783447265625E-05	0.480316162109375
198	0.4833984375	11.4757389710265	3.01422119140625E-05	0.482757568359375
199	0.48583984375	11.5001389709649	3.13751220703125E-05	0.485748291015625
200	0.48828125	11.5245389709033	3.27178955078125E-05	0.488128662109375
201	0.49072265625	11.5489389708417	3.29925537109375E-05	0.490570068359375
202	0.4931640625	11.5733389707801	3.41949462890625E-05	0.493072509765625
203	0.49560546875	11.5977389707185	3.472900390625E-05	0.495452880859375
204	0.498046875	11.6221389706569	3.62152099609375E-05	0.49798583984375
205	0.50048828125	11.6465389705953	3.6907958984375E-05	0.5003662109375
206	0.5029296875	11.6709389705337	3.7384033203125E-05	0.502838134765625
207	0.50537109375	11.6953389704721	3.92578125E-05	0.5052490234375
208	0.5078125	11.7197389704105	3.94805908203125E-05	0.50762939453125
209	0.51025390625	11.7441389703489	4.10125732421875E-05	0.510162353515625
210	0.5126953125	11.7685389702873	4.0863037109375E-05	0.5125732421875
211	0.51513671875	11.7929389702257	4.354248046875E-05	0.515045166015625
212	0.517578125	11.8173389701641	4.38232421875E-05	0.51751708984375
213	0.52001953125	11.8417389701025	4.583740234375E-05	0.5198974609375
214	0.5224609375	11.8661389700409	4.63958740234375E-05	0.522369384765625
215	0.52490234375	11.8905389699793	4.73175048828125E-05	0.524810791015625
216	0.52734375	11.9149389699177	4.8797607421875E-05	0.5272216796875
217	0.52978515625	11.9393389698561	4.84222412109375E-05	0.5296630859375
218	0.5322265625	11.9637389697945	5.09033203125E-05	0.53216552734375
219	0.53466796875	11.9881389697329	5.133056640625E-05	0.534576416015625
220	0.537109375	12.0125389696713	5.3802490234375E-05	0.536956787109375
221	0.53955078125	12.0369389696097	5.4534912109375E-05	0.5394287109375
222	0.5419921875	12.061338969548	5.517578125E-05	0.541839599609375
223	0.54443359375	12.0857389694864	5.7464599609375E-05	0.544281005859375
224	0.546875	12.1101389694248	5.8319091796875E-05	0.546783447265625
225	0.54931640625	12.1345389693632	6.024169921875E-05	0.5491943359375
226	0.5517578125	12.1589389693016	6.0150146484375E-05	0.551605224609375
227	0.55419921875	12.18333896924	6.2530517578125E-05	0.5540771484375
228	0.556640625	12.2077389691784	6.50634765625E-05	0.55645751953125
229	0.55908203125	12.2321389691168	6.5887451171875E-05	0.558929443359375
230	0.5615234375	12.2565389690552	6.70166015625E-05	0.561370849609375
231	0.56396484375	12.2809389689936	6.77490234375E-05	0.563812255859375
232	0.56640625	12.305338968932	7.0587158203125E-05	0.566253662109375
233	0.56884765625	12.3297389688704	7.1624755859375E-05	0.56866455078125
234	0.5712890625	12.3541389688088	7.32421875E-05	0.57110595703125
235	0.57373046875	12.3785389687472	7.470703125E-05	0.573577880859375
236	0.576171875	12.4029389686856	7.6812744140625E-05	0.576019287109375
237	0.57861328125	12.427338968624	7.82470703125E-05	0.578399658203125
238	0.5810546875	12.4517389685624	8.0413818359375E-05	0.58087158203125
239	0.58349609375	12.4761389685008	8.28857421875E-05	0.58331298828125
240	0.5859375	12.5005389684392	8.3465576171875E-05	0.585723876953125
241	0.58837890625	12.5249389683776	8.7005615234375E-05	0.58819580078125
242	0.5908203125	12.549338968316	8.8165283203125E-05	0.59063720703125
243	0.59326171875	12.5737389682544	9.033203125E-05	0.593048095703125
244	0.595703125	12.5981389681928	9.234619140625E-05	0.595489501953125
245	0.59814453125	12.6225389681312	9.4085693359375E-05	0.597900390625
246	0.6005859375	12.6469389680695	9.7259521484375E-05	0.600341796875
247	0.60302734375	12.6713389680079	9.9365234375E-05	0.602783203125
248	0.60546875	12.6957389679463	0.000102020263671875	0.60528564453125
249	0.60791015625	12.7201389678847	0.000102935791015625	0.607635498046875
250	0.6103515625	12.7445389678231	0.00010614013671875	0.610076904296875
251	0.61279296875	12.7689389677615	0.000108306884765625	0.612548828125
252	0.615234375	12.7933389676999	0.000111541748046875	0.615020751953125
253	0.61767578125	12.8177389676383	0.000113677978515625	0.617340087890625
254	0.6201171875	12.8421389675767	0.00011602783203125	0.61981201171875
255	0.62255859375	12.8665389675151	0.000119842529296875	0.622222900390625
256	0.625	12.8909389674535	0.00012139892578125	0.62469482421875
257	0.62744140625	12.9153389673919	0.000124542236328125	0.62713623046875
258	0.6298828125	12.9397389673303	0.000126556396484375	0.62957763671875
259	0.63232421875	12.9641389672687	0.00013006591796875	0.631988525390625
260	0.634765625	12.9885389672071	0.000133087158203125	0.634429931640625
261	0.63720703125	13.0129389671455	0.000136566162109375	0.6368408203125
262	0.6396484375	13.0373389670839	0.000140289306640625	0.6392822265625
263	0.64208984375	13.0617389670223	0.00014251708984375	0.641693115234375
264	0.64453125	13.0861389669607	0.00014666748046875	0.644134521484375
265	0.64697265625	13.1105389668991	0.000150115966796875	0.6466064453125
266	0.6494140625	13.1349389668375	0.00015350341796875	0.6490478515625
267	0.65185546875	13.1593389667759	0.00015753173828125	0.651458740234375
268	0.654296875	13.1837389667143	0.000160614013671875	0.653839111328125
269	0.65673828125	13.2081389666527	0.000164520263671875	0.656280517578125
270	0.6591796875	13.2325389665911	0.00016815185546875	0.65875244140625
271	0.66162109375	13.2569389665294	0.000172607421875	0.6611328125
272	0.6640625	13.2813389664678	0.000176361083984375	0.66357421875
273	0.66650390625	13.3057389664062	0.00018170166015625	0.666015625
274	0.6689453125	13.3301389663446	0.000186126708984375	0.66845703125
275	0.67138671875	13.354538966283	0.00019000244140625	0.670867919921875
276	0.673828125	13.3789389662214	0.0001953125	0.67333984375
277	0.67626953125	13.4033389661598	0.00019891357421875	0.67572021484375
278	0.6787109375	13.4277389660982	0.00020550537109375	0.678131103515625
279	0.68115234375	13.4521389660366	0.000209686279296875	0.680572509765625
280	0.68359375	13.476538965975	0.000215087890625	0.6829833984375
281	0.68603515625	13.5009389659134	0.00021929931640625	0.685455322265625
282	0.6884765625	13.5253389658518	0.000225494384765625	0.687896728515625
283	0.69091796875	13.5497389657902	0.000232452392578125	0.69024658203125
284	0.693359375	13.5741389657286	0.000235931396484375	0.692718505859375
285	0.69580078125	13.598538965667	0.00024249267578125	0.695098876953125
286	0.6982421875	13.6229389656054	0.000247467041015625	0.697479248046875
287	0.70068359375	13.6473389655438	0.000254730224609375	0.699920654296875
288	0.703125	13.6717389654822	0.000261016845703125	0.702362060546875
289	0.70556640625	13.6961389654206	0.0002667236328125	0.704833984375
290	0.7080078125	13.720538965359	0.000274017333984375	0.707275390625
291	0.71044921875	13.7449389652974	0.000279937744140625	0.70965576171875
292	0.712890625	13.7693389652358	0.000288421630859375	0.7120361328125
293	0.71533203125	13.7937389651742	0.000296112060546875	0.714447021484375
294	0.7177734375	13.8181389651126	0.000304443359375	0.716888427734375
295	0.72021484375	13.8425389650509	0.000310638427734375	0.720001220703125
296	0.72265625	13.8669389649893	0.0003187255859375	0.722442626953125
297	0.72509765625	13.8913389649277	0.000326873779296875	0.724822998046875
298	0.7275390625	13.9157389648661	0.0003348388671875	0.727325439453125
299	0.72998046875	13.9401389648045	0.00034405517578125	0.72979736328125
300	0.732421875	13.9645389647429	0.00035296630859375	0.732208251953125
301	0.73486328125	13.9889389646813	0.000362213134765625	0.734588623046875
302	0.7373046875	14.0133389646197	0.000371185302734375	0.737060546875
303	0.73974609375	14.0377389645581	0.000380462646484375	0.739532470703125
304	0.7421875	14.0621389644965	0.000390289306640625	0.741943359375
305	0.74462890625	14.0865389644349	0.000400726318359375	0.744415283203125
306	0.7470703125	14.1109389643733	0.000411712646484375	0.746795654296875
307	0.74951171875	14.1353389643117	0.0004215087890625	0.749237060546875
308	0.751953125	14.1597389642501	0.000433624267578125	0.75103759765625
309	0.75439453125	14.1841389641885	0.000444061279296875	0.7537841796875
310	0.7568359375	14.2085389641269	0.000456085205078125	0.7562255859375
311	0.75927734375	14.2329389640653	0.0004674072265625	0.75897216796875
312	0.76171875	14.2573389640037	0.000480010986328125	0.76080322265625
313	0.76416015625	14.2817389639421	0.00049200439453125	0.7635498046875
314	0.7666015625	14.3061389638805	0.00050506591796875	0.76568603515625
315	0.76904296875	14.3305389638189	0.0005169677734375	0.7684326171875
316	0.771484375	14.3549389637573	0.0005303955078125	0.77117919921875
317	0.77392578125	14.3793389636957	0.00054443359375	0.77362060546875
318	0.7763671875	14.4037389636341	0.00055755615234375	0.7757568359375
319	0.77880859375	14.4281389635725	0.00057281494140625	0.77850341796875
320	0.78125	14.4525389635108	0.0005877685546875	0.78033447265625
321	0.78369140625	14.4769389634492	0.00060333251953125	0.78277587890625
322	0.7861328125	14.5013389633876	0.00061798095703125	0.7855224609375
323	0.78857421875	14.525738963326	0.000633544921875	0.78765869140625
324	0.791015625	14.5501389632644	0.00064971923828125	0.7904052734375
325	0.79345703125	14.5745389632028	0.0006658935546875	0.79254150390625
326	0.7958984375	14.5989389631412	0.00068389892578125	0.79498291015625
327	0.79833984375	14.6233389630796	0.00070068359375	0.7977294921875
328	0.80078125	14.647738963018	0.0007183837890625	0.79986572265625
329	0.80322265625	14.6721389629564	0.0007354736328125	0.802001953125
330	0.8056640625	14.6965389628948	0.00075439453125	0.80474853515625
331	0.80810546875	14.7209389628332	0.000772705078125	0.80718994140625
332	0.810546875	14.7453389627716	0.00079193115234375	0.80963134765625
333	0.81298828125	14.76973896271	0.0008111572265625	0.811767578125
334	0.8154296875	14.7941389626484	0.0008306884765625	0.814208984375
335	0.81787109375	14.8185389625868	0.00085205078125	0.8172607421875
336	0.8203125	14.8429389625252	0.00087158203125	0.8197021484375
337	0.82275390625	14.8673389624636	0.0008935546875	0.82244873046875
338	0.8251953125	14.891738962402	0.00091339111328125	0.82427978515625
339	0.82763671875	14.9161389623404	0.00093597412109375	0.82763671875
340	0.830078125	14.9405389622788	0.0009576416015625	0.828857421875
341	0.83251953125	14.9649389622172	0.00098175048828125	0.831298828125
342	0.8349609375	14.9893389621556	0.001004638671875	0.83404541015625
343	0.83740234375	15.013738962094	0.001026611328125	0.83709716796875
344	0.83984375	15.0381389620323	0.0010516357421875	0.83892822265625
345	0.84228515625	15.0625389619707	0.00107513427734375	0.8416748046875
346	0.8447265625	15.0869389619091	0.0011004638671875	0.84442138671875
347	0.84716796875	15.1113389618475	0.00112548828125	0.845947265625
348	0.849609375	15.1357389617859	0.00115142822265625	0.84808349609375
349	0.85205078125	15.1601389617243	0.0011767578125	0.8514404296875
350	0.8544921875	15.1845389616627	0.00120269775390625	0.8538818359375
351	0.85693359375	15.2089389616011	0.0012298583984375	0.85601806640625
352	0.859375	15.2333389615395	0.0012567138671875	0.85845947265625
353	0.86181640625	15.2577389614779	0.00128509521484375	0.86090087890625
354	0.8642578125	15.2821389614163	0.0013116455078125	0.863037109375
355	0.86669921875	15.3065389613547	0.001341552734375	0.86578369140625
356	0.869140625	15.3309389612931	0.00136962890625	0.86822509765625
357	0.87158203125	15.3553389612315	0.0013983154296875	0.870361328125
358	0.8740234375	15.3797389611699	0.00142913818359375	0.87310791015625
359	0.87646484375	15.4041389611083	0.001458740234375	0.8758544921875
360	0.87890625	15.4285389610467	0.0014910888671875	0.87799072265625
361	0.88134765625	15.4529389609851	0.00152008056640625	0.880126953125
362	0.8837890625	15.4773389609235	0.00155242919921875	0.88287353515625
363	0.88623046875	15.5017389608619	0.001583251953125	0.88531494140625
364	0.888671875	15.5261389608003	0.00161590576171875	0.8880615234375
365	0.89111328125	15.5505389607387	0.00164825439453125	0.8905029296875
366	0.8935546875	15.5749389606771	0.0016815185546875	0.892333984375
367	0.89599609375	15.5993389606155	0.00171600341796875	0.8953857421875
368	0.8984375	15.6237389605539	0.00174835205078125	0.8978271484375
369	0.90087890625	15.6481389604922	0.00178497314453125	0.9002685546875
370	0.9033203125	15.6725389604306	0.001817626953125	0.902099609375
371	0.90576171875	15.696938960369	0.0018536376953125	0.904541015625
372	0.908203125	15.7213389603074	0.00188934326171875	0.9075927734375
373	0.91064453125	15.7457389602458	0.00192535400390625	0.90972900390625
374	0.9130859375	15.7701389601842	0.0019622802734375	0.911865234375
375	0.91552734375	15.7945389601226	0.0019989013671875	0.91461181640625
376	0.91796875	15.818938960061	0.00203643798828125	0.916748046875
377	0.92041015625	15.8433389599994	0.00207244873046875	0.91949462890625
378	0.9228515625	15.8677389599378	0.0021124267578125	0.921630859375
379	0.92529296875	15.8921389598762	0.00214996337890625	0.924072265625
380	0.927734375	15.9165389598146	0.00218841552734375	0.92681884765625
381	0.93017578125	15.940938959753	0.00222930908203125	0.92987060546875
382	0.9326171875	15.9653389596914	0.00226806640625	0.9320068359375
383	0.93505859375	15.9897389596298	0.0023095703125	0.93414306640625
384	0.9375	16.0141389595682	0.00234832763671875	0.9368896484375
385	0.93994140625	16.0385389595066	0.00239166259765625	0.938720703125
386	0.9423828125	16.062938959445	0.0024310302734375	0.941162109375
387	0.94482421875	16.0873389593834	0.00247344970703125	0.94390869140625
388	0.947265625	16.1117389593218	0.0025152587890625	0.94573974609375
389	0.94970703125	16.1361389592602	0.00255706787109375	0.94879150390625
390	0.9521484375	16.1605389591986	0.002601318359375	0.95123291015625
391	0.95458984375	16.184938959137	0.0026434326171875	0.95367431640625
392	0.95703125	16.2093389590754	0.00268798828125	0.9564208984375
393	0.95947265625	16.2337389590137	0.0027294921875	0.9588623046875
394	0.9619140625	16.2581389589521	0.002774658203125	0.9613037109375
395	0.96435546875	16.2825389588905	0.00281951904296875	0.96343994140625
396	0.966796875	16.3069389588289	0.0028631591796875	0.96588134765625
397	0.96923828125	16.3313389587673	0.00290985107421875	0.968017578125
398	0.9716796875	16.3557389587057	0.00295379638671875	0.97076416015625
399	0.97412109375	16.3801389586441	0.003001708984375	0.9735107421875
400	0.9765625	16.4045389585825	0.0030462646484375	0.9759521484375
401	0.97900390625	16.4289389585209	0.00309478759765625	0.97808837890625
402	0.9814453125	16.4533389584593	0.0031396484375	0.9808349609375
403	0.98388671875	16.4777389583977	0.0031866455078125	0.98297119140625
404	0.986328125	16.5021389583361	0.00323455810546875	0.98541259765625
405	0.98876953125	16.5265389582745	0.0032818603515625	0.9881591796875
406	0.9912109375	16.5509389582129	0.00333160400390625	0.99029541015625
407	0.99365234375	16.5753389581513	0.003377685546875	0.9930419921875
408	0.99609375	16.5997389580897	0.00342803955078125	0.99517822265625
409	0.99853515625	16.6241389580281	0.003475341796875	0.9979248046875
410	1.0009765625	16.6485389579665	0.0035247802734375	1.00006103515625
411	1.00341796875	16.6729389579049	0.0035736083984375	1.0028076171875
412	1.005859375	16.6973389578433	0.0036212158203125	1.00494384765625
413	1.00830078125	16.7217389577817	0.00367156982421875	1.007080078125
414	1.0107421875	16.7461389577201	0.00371917724609375	1.01043701171875
415	1.01318359375	16.7705389576585	0.00376922607421875	1.0125732421875
416	1.015625	16.7949389575969	0.0038153076171875	1.01531982421875
417	1.01806640625	16.8193389575353	0.00386383056640625	1.01715087890625
418	1.0205078125	16.8437389574736	0.00391143798828125	1.019287109375
419	1.02294921875	16.868138957412	0.0039581298828125	1.021728515625
420	1.025390625	16.8925389573504	0.00400482177734375	1.02447509765625
421	1.02783203125	16.9169389572888	0.00404876708984375	1.026611328125
422	1.0302734375	16.9413389572272	0.004095458984375	1.02935791015625
423	1.03271484375	16.9657389571656	0.00413818359375	1.03179931640625
424	1.03515625	16.990138957104	0.00418212890625	1.033935546875
425	1.03759765625	17.0145389570424	0.00422271728515625	1.036376953125
426	1.0400390625	17.0389389569808	0.004263916015625	1.03912353515625
427	1.04248046875	17.0633389569192	0.00430419921875	1.041259765625
428	1.044921875	17.0877389568576	0.00434173583984375	1.0443115234375
429	1.04736328125	17.112138956796	0.00438018798828125	1.04583740234375
430	1.0498046875	17.1365389567344	0.004415283203125	1.04888916015625
431	1.05224609375	17.1609389566728	0.0044512939453125	1.0516357421875
432	1.0546875	17.1853389566112	0.00448516845703125	1.05377197265625
433	1.05712890625	17.2097389565496	0.0045184326171875	1.0565185546875
434	1.0595703125	17.234138956488	0.0045501708984375	1.05865478515625
435	1.06201171875	17.2585389564264	0.00458099365234375	1.060791015625
436	1.064453125	17.2829389563648	0.00461212158203125	1.063232421875
437	1.06689453125	17.3073389563032	0.0046405029296875	1.065673828125
438	1.0693359375	17.3317389562416	0.0046697998046875	1.06842041015625
439	1.07177734375	17.35613895618	0.004696044921875	1.070556640625
440	1.07421875	17.3805389561184	0.00472320556640625	1.0736083984375
441	1.07666015625	17.4049389560568	0.0047491455078125	1.07635498046875
442	1.0791015625	17.4293389559951	0.004774169921875	1.077880859375
443	1.08154296875	17.4537389559335	0.004798583984375	1.08062744140625
444	1.083984375	17.4781389558719	0.00482177734375	1.08306884765625
445	1.08642578125	17.5025389558103	0.00484527587890625	1.085205078125
446	1.0888671875	17.5269389557487	0.0048675537109375	1.08795166015625
447	1.09130859375	17.5513389556871	0.00489013671875	1.09039306640625
448	1.09375	17.5757389556255	0.004910888671875	1.092529296875
449	1.09619140625	17.6001389555639	0.004931640625	1.094970703125
450	1.0986328125	17.6245389555023	0.004952392578125	1.097412109375
451	1.10107421875	17.6489389554407	0.00497222900390625	1.10015869140625
452	1.103515625	17.6733389553791	0.0049920654296875	1.10198974609375
453	1.10595703125	17.6977389553175	0.0050103759765625	1.1053466796875
454	1.1083984375	17.7221389552559	0.00502960205078125	1.10748291015625
455	1.11083984375	17.7465389551943	0.00504730224609375	1.10992431640625
456	1.11328125	17.7709389551327	0.0050653076171875	1.112060546875
457	1.11572265625	17.7953389550711	0.00508270263671875	1.11480712890625
458	1.1181640625	17.8197389550095	0.0050994873046875	1.116943359375
459	1.12060546875	17.8441389549479	0.0051165771484375	1.11907958984375
460	1.123046875	17.8685389548863	0.00513275146484375	1.12213134765625
461	1.12548828125	17.8929389548247	0.0051495361328125	1.12457275390625
462	1.1279296875	17.9173389547631	0.005164794921875	1.1273193359375
463	1.13037109375	17.9417389547015	0.0051806640625	1.12884521484375
464	1.1328125	17.9661389546399	0.0051959228515625	1.131591796875
465	1.13525390625	17.9905389545783	0.005211181640625	1.134033203125
466	1.1376953125	18.0149389545167	0.00522613525390625	1.13677978515625
467	1.14013671875	18.039338954455	0.005240478515625	1.13922119140625
468	1.142578125	18.0637389543934	0.00525482177734375	1.141357421875
469	1.14501953125	18.0881389543318	0.00526885986328125	1.14410400390625
470	1.1474609375	18.1125389542702	0.00528289794921875	1.14593505859375
471	1.14990234375	18.1369389542086	0.005296630859375	1.14837646484375
472	1.15234375	18.161338954147	0.00531005859375	1.15142822265625
473	1.15478515625	18.1857389540854	0.005323486328125	1.153564453125
474	1.1572265625	18.2101389540238	0.00533660888671875	1.156005859375
475	1.15966796875	18.2345389539622	0.0053497314453125	1.15875244140625
476	1.162109375	18.2589389539006	0.00536224365234375	1.16119384765625
477	1.16455078125	18.283338953839	0.00537506103515625	1.16363525390625
478	1.1669921875	18.3077389537774	0.00538726806640625	1.165771484375
479	1.16943359375	18.3321389537158	0.0053997802734375	1.168212890625
480	1.171875	18.3565389536542	0.00541168212890625	1.17034912109375
481	1.17431640625	18.3809389535926	0.005423583984375	1.173095703125
482	1.1767578125	18.405338953531	0.005435791015625	1.175537109375
483	1.17919921875	18.4297389534694	0.0054473876953125	1.1785888671875
484	1.181640625	18.4541389534078	0.005458984375	1.180419921875
485	1.18408203125	18.4785389533462	0.005469970703125	1.18316650390625
486	1.1865234375	18.5029389532846	0.0054815673828125	1.185302734375
487	1.18896484375	18.527338953223	0.0054925537109375	1.18743896484375
488	1.19140625	18.5517389531614	0.0055035400390625	1.19049072265625
489	1.19384765625	18.5761389530998	0.0055145263671875	1.19293212890625
490	1.1962890625	18.6005389530382	0.00552520751953125	1.195068359375
491	1.19873046875	18.6249389529765	0.005535888671875	1.19781494140625
492	1.201171875	18.6493389529149	0.0055462646484375	1.20025634765625
493	1.19873046875	18.6737389528533	0.005531005859375	1.197509765625
494	1.1962890625	18.6981389527917	0.00551513671875	1.195068359375
495	1.19384765625	18.7225389527301	0.005499267578125	1.19293212890625
496	1.19140625	18.7469389526685	0.00548309326171875	1.1895751953125
497	1.18896484375	18.7713389526069	0.00546661376953125	1.18804931640625
498	1.1865234375	18.7957389525453	0.00545013427734375	1.18560791015625
499	1.18408203125	18.8201389524837	0.0054327392578125	1.18255615234375
500	1.181640625	18.8445389524221	0.0054156494140625	1.180419921875
501	1.17919921875	18.8689389523605	0.00539825439453125	1.177978515625
502	1.1767578125	18.8933389522989	0.00538055419921875	1.17584228515625
503	1.17431640625	18.9177389522373	0.00536224365234375	1.17340087890625
504	1.171875	18.9421389521757	0.0053436279296875	1.17095947265625
505	1.16943359375	18.9665389521141	0.00532470703125	1.1676025390625
506	1.1669921875	18.9909389520525	0.00530517578125	1.16607666015625
507	1.16455078125	19.0153389519909	0.00528594970703125	1.16363525390625
508	1.162109375	19.0397389519293	0.0052655029296875	1.1614990234375
509	1.15966796875	19.0641389518677	0.00524505615234375	1.158447265625
510	1.1572265625	19.0885389518061	0.00522430419921875	1.1553955078125
511	1.15478515625	19.1129389517445	0.00520263671875	1.153564453125
512	1.15234375	19.1373389516829	0.0051806640625	1.151123046875
513	1.14990234375	19.1617389516213	0.0051580810546875	1.148681640625
514	1.1474609375	19.1861389515597	0.00513519287109375	1.14593505859375
515	1.14501953125	19.2105389514981	0.00511138916015625	1.143798828125
516	1.142578125	19.2349389514364	0.00508697509765625	1.141357421875
517	1.14013671875	19.2593389513748	0.00506195068359375	1.1395263671875
518	1.1376953125	19.2837389513132	0.0050360107421875	1.136474609375
519	1.13525390625	19.3081389512516	0.005009765625	1.13433837890625
520	1.1328125	19.33253895119	0.0049822998046875	1.131591796875
521	1.13037109375	19.3569389511284	0.0049542236328125	1.12945556640625
522	1.1279296875	19.3813389510668	0.00492431640625	1.12701416015625
523	1.12548828125	19.4057389510052	0.00489471435546875	1.12518310546875
524	1.123046875	19.4301389509436	0.00486328125	1.12213134765625
525	1.12060546875	19.454538950882	0.00483123779296875	1.119384765625
526	1.1181640625	19.4789389508204	0.00479766845703125	1.116943359375
527	1.11572265625	19.5033389507588	0.00476226806640625	1.1151123046875
528	1.11328125	19.5277389506972	0.00472625732421875	1.11236572265625
529	1.11083984375	19.5521389506356	0.0046881103515625	1.109619140625
530	1.1083984375	19.576538950574	0.0046490478515625	1.107177734375
531	1.10595703125	19.6009389505124	0.00460723876953125	1.104736328125
532	1.103515625	19.6253389504508	0.00456451416015625	1.102294921875
533	1.10107421875	19.6497389503892	0.0045196533203125	1.1004638671875
534	1.0986328125	19.6741389503276	0.00447235107421875	1.09771728515625
535	1.09619140625	19.698538950266	0.00442352294921875	1.094970703125
536	1.09375	19.7229389502044	0.0043719482421875	1.092529296875
537	1.09130859375	19.7473389501428	0.00431915283203125	1.08978271484375
538	1.0888671875	19.7717389500812	0.00426300048828125	1.08795166015625
539	1.08642578125	19.7961389500196	0.00420623779296875	1.0858154296875
540	1.083984375	19.8205389499579	0.0041455078125	1.08306884765625
541	1.08154296875	19.8449389498963	0.00408477783203125	1.08062744140625
542	1.0791015625	19.8693389498347	0.00402252197265625	1.0784912109375
543	1.07666015625	19.8937389497731	0.00395751953125	1.07574462890625
544	1.07421875	19.9181389497115	0.003892822265625	1.0736083984375
545	1.07177734375	19.9425389496499	0.00382568359375	1.0711669921875
546	1.0693359375	19.9669389495883	0.00376007080078125	1.06903076171875
547	1.06689453125	19.9913389495267	0.0036932373046875	1.06597900390625
548	1.064453125	20.0157389494651	0.0036260986328125	1.063232421875
549	1.06201171875	20.0401389494035	0.00355926513671875	1.06109619140625
550	1.0595703125	20.0645389493419	0.003492431640625	1.05865478515625
551	1.05712890625	20.0889389492803	0.00342803955078125	1.0565185546875
552	1.0546875	20.1133389492187	0.0033612060546875	1.05377197265625
553	1.05224609375	20.1377389491571	0.0032965087890625	1.051025390625
554	1.0498046875	20.1621389490955	0.00323150634765625	1.04888916015625
555	1.04736328125	20.1865389490339	0.00316802978515625	1.04644775390625
556	1.044921875	20.2109389489723	0.00310516357421875	1.04400634765625
557	1.04248046875	20.2353389489107	0.0030426025390625	1.04156494140625
558	1.0400390625	20.2597389488491	0.0029815673828125	1.038818359375
559	1.03759765625	20.2841389487875	0.00292022705078125	1.03668212890625
560	1.03515625	20.3085389487259	0.002861328125	1.03424072265625
561	1.03271484375	20.3329389486643	0.002801513671875	1.0321044921875
562	1.0302734375	20.3573389486027	0.002744140625	1.029052734375
563	1.02783203125	20.3817389485411	0.00268585205078125	1.026611328125
564	1.025390625	20.4061389484795	0.00263031005859375	1.0247802734375
565	1.02294921875	20.4305389484178	0.00257568359375	1.021728515625
566	1.0205078125	20.4549389483562	0.002520751953125	1.0198974609375
567	1.01806640625	20.4793389482946	0.00246734619140625	1.0174560546875
568	1.015625	20.503738948233	0.00241302490234375	1.0150146484375
569	1.01318359375	20.5281389481714	0.00236175537109375	1.011962890625
570	1.0107421875	20.5525389481098	0.0023114013671875	1.00982666015625
571	1.00830078125	20.5769389480482	0.0022607421875	1.00677490234375
572	1.005859375	20.6013389479866	0.0022113037109375	1.004638671875
573	1.00341796875	20.625738947925	0.0021630859375	1.00250244140625
574	1.0009765625	20.6501389478634	0.002117919921875	0.999755859375
575	0.99853515625	20.6745389478018	0.0020703125	0.9979248046875
576	0.99609375	20.6989389477402	0.00202606201171875	0.994873046875
577	0.99365234375	20.7233389476786	0.0019818115234375	0.9930419921875
578	0.9912109375	20.747738947617	0.00193878173828125	0.989990234375
579	0.98876953125	20.7721389475554	0.0018963623046875	0.98846435546875
580	0.986328125	20.7965389474938	0.0018548583984375	0.9857177734375
581	0.98388671875	20.8209389474322	0.0018145751953125	0.98297119140625
582	0.9814453125	20.8453389473706	0.00177490234375	0.98052978515625
583	0.97900390625	20.869738947309	0.00173614501953125	0.9783935546875
584	0.9765625	20.8941389472474	0.001697998046875	0.975341796875
585	0.97412109375	20.9185389471858	0.00166107177734375	0.9735107421875
586	0.9716796875	20.9429389471242	0.0016241455078125	0.97076416015625
587	0.96923828125	20.9673389470626	0.00158905029296875	0.96893310546875
588	0.966796875	20.991738947001	0.00155487060546875	0.965576171875
589	0.96435546875	21.0161389469393	0.0015216064453125	0.96343994140625
590	0.9619140625	21.0405389468777	0.0014886474609375	0.9613037109375
591	0.95947265625	21.0649389468161	0.0014556884765625	0.9588623046875
592	0.95703125	21.0893389467545	0.0014239501953125	0.95611572265625
593	0.95458984375	21.1137389466929	0.0013946533203125	0.953369140625
594	0.9521484375	21.1381389466313	0.0013641357421875	0.950927734375
595	0.94970703125	21.1625389465697	0.00133575439453125	0.94879150390625
596	0.947265625	21.1869389465081	0.0013067626953125	0.94635009765625
597	0.94482421875	21.2113389464465	0.0012799072265625	0.9442138671875
598	0.9423828125	21.2357389463849	0.00125244140625	0.94146728515625
599	0.93994140625	21.2601389463233	0.0012261962890625	0.93902587890625
600	0.9375	21.2845389462617	0.0012005615234375	0.936279296875
601	0.93505859375	21.3089389462001	0.001175537109375	0.933837890625
602	0.9326171875	21.3333389461385	0.00115081787109375	0.93170166015625
603	0.93017578125	21.3577389460769	0.00112701416015625	0.928955078125
604	0.927734375	21.3821389460153	0.001103515625	0.92620849609375
605	0.92529296875	21.4065389459537	0.0010809326171875	0.92437744140625
606	0.9228515625	21.4309389458921	0.0010601806640625	0.92193603515625
607	0.92041015625	21.4553389458305	0.00103851318359375	0.91949462890625
608	0.91796875	21.4797389457689	0.00101806640625	0.91705322265625
609	0.91552734375	21.5041389457073	0.0009979248046875	0.9149169921875
610	0.9130859375	21.5285389456457	0.00097808837890625	0.91278076171875
611	0.91064453125	21.5529389455841	0.0009588623046875	0.9100341796875
612	0.908203125	21.5773389455225	0.00093963623046875	0.90728759765625
613	0.90576171875	21.6017389454609	0.00092193603515625	0.904541015625
614	0.9033203125	21.6261389453992	0.000904541015625	0.9027099609375
615	0.90087890625	21.6505389453376	0.00088623046875	0.9002685546875
616	0.8984375	21.674938945276	0.0008697509765625	0.8978271484375
617	0.89599609375	21.6993389452144	0.00085235595703125	0.89508056640625
618	0.8935546875	21.7237389451528	0.0008367919921875	0.892333984375
619	0.89111328125	21.7481389450912	0.00082000732421875	0.89080810546875
620	0.888671875	21.7725389450296	0.00080413818359375	0.8880615234375
621	0.88623046875	21.796938944968	0.00079010009765625	0.8856201171875
622	0.8837890625	21.8213389449064	0.00077423095703125	0.88348388671875
623	0.88134765625	21.8457389448448	0.00076202392578125	0.8807373046875
624	0.87890625	21.8701389447832	0.0007470703125	0.87799072265625
625	0.87646484375	21.8945389447216	0.000733642578125	0.875244140625
626	0.8740234375	21.91893894466	0.00071990966796875	0.872802734375
627	0.87158203125	21.9433389445984	0.000706787109375	0.87066650390625
628	0.869140625	21.9677389445368	0.00069366455078125	0.86822509765625
629	0.86669921875	21.9921389444752	0.0006805419921875	0.8660888671875
630	0.8642578125	22.0165389444136	0.00066925048828125	0.8636474609375
631	0.86181640625	22.040938944352	0.000655517578125	0.86090087890625
632	0.859375	22.0653389442904	0.0006451416015625	0.8587646484375
633	0.85693359375	22.0897389442288	0.0006329345703125	0.8563232421875
634	0.8544921875	22.1141389441672	0.0006207275390625	0.8538818359375
635	0.85205078125	22.1385389441056	0.0006109619140625	0.850830078125
636	0.849609375	22.162938944044	0.0005999755859375	0.84869384765625
637	0.84716796875	22.1873389439824	0.00058990478515625	0.845947265625
638	0.8447265625	22.2117389439207	0.00057861328125	0.843505859375
639	0.84228515625	22.2361389438591	0.00056915283203125	0.841064453125
640	0.83984375	22.2605389437975	0.00055816650390625	0.83953857421875
641	0.83740234375	22.2849389437359	0.00055023193359375	0.8367919921875
642	0.8349609375	22.3093389436743	0.00053955078125	0.8343505859375
643	0.83251953125	22.3337389436127	0.0005291748046875	0.8319091796875
644	0.830078125	22.3581389435511	0.0005224609375	0.828857421875
645	0.82763671875	22.3825389434895	0.0005120849609375	0.82672119140625
646	0.8251953125	22.4069389434279	0.00050323486328125	0.82489013671875
647	0.82275390625	22.4313389433663	0.000493408203125	0.82183837890625
648	0.8203125	22.4557389433047	0.000485504150390625	0.8197021484375
649	0.81787109375	22.4801389432431	0.000476226806640625	0.81756591796875
650	0.8154296875	22.5045389431815	0.00046807861328125	0.81451416015625
651	0.81298828125	22.5289389431199	0.00046051025390625	0.8123779296875
652	0.810546875	22.5533389430583	0.000451416015625	0.80963134765625
653	0.80810546875	22.5777389429967	0.000445068359375	0.80718994140625
654	0.8056640625	22.6021389429351	0.000436767578125	0.804443359375
655	0.80322265625	22.6265389428735	0.00042926025390625	0.80230712890625
656	0.80078125	22.6509389428119	0.000420654296875	0.799560546875
657	0.79833984375	22.6753389427503	0.000413665771484375	0.79742431640625
658	0.7958984375	22.6997389426887	0.000407440185546875	0.79498291015625
659	0.79345703125	22.7241389426271	0.00040020751953125	0.7928466796875
660	0.791015625	22.7485389425655	0.000393829345703125	0.79010009765625
661	0.78857421875	22.7729389425039	0.0003861083984375	0.78765869140625
662	0.7861328125	22.7973389424423	0.00038067626953125	0.7855224609375
663	0.78369140625	22.8217389423806	0.00037225341796875	0.78277587890625
664	0.78125	22.846138942319	0.000366943359375	0.7806396484375
665	0.77880859375	22.8705389422574	0.000360504150390625	0.7781982421875
666	0.7763671875	22.8949389421958	0.000353515625	0.7757568359375
667	0.77392578125	22.9193389421342	0.000348114013671875	0.7733154296875
668	0.771484375	22.9437389420726	0.000340789794921875	0.77117919921875
669	0.76904296875	22.968138942011	0.0003355712890625	0.7684326171875
670	0.7666015625	22.9925389419494	0.000329193115234375	0.76629638671875
671	0.76416015625	23.0169389418878	0.000324005126953125	0.76385498046875
672	0.76171875	23.0413389418262	0.00031829833984375	0.7611083984375
673	0.75927734375	23.0657389417646	0.000312530517578125	0.75897216796875
674	0.7568359375	23.090138941703	0.000308013916015625	0.75653076171875
675	0.75439453125	23.1145389416414	0.00030242919921875	0.7537841796875
676	0.751953125	23.1389389415798	0.00029693603515625	0.75164794921875
677	0.74951171875	23.1633389415182	0.00029046630859375	0.749237060546875
678	0.7470703125	23.1877389414566	0.000285125732421875	0.746856689453125
679	0.74462890625	23.212138941395	0.00027984619140625	0.744384765625
680	0.7421875	23.2365389413334	0.00027362060546875	0.74200439453125
681	0.73974609375	23.2609389412718	0.0002684326171875	0.739593505859375
682	0.7373046875	23.2853389412102	0.000263275146484375	0.737091064453125
683	0.73486328125	23.3097389411486	0.000259246826171875	0.734619140625
684	0.732421875	23.334138941087	0.00025439453125	0.732269287109375
685	0.72998046875	23.3585389410254	0.000250244140625	0.72979736328125
686	0.7275390625	23.3829389409638	0.0002447509765625	0.727325439453125
687	0.72509765625	23.4073389409022	0.000239715576171875	0.72491455078125
688	0.72265625	23.4317389408405	0.00023577880859375	0.72247314453125
689	0.72021484375	23.4561389407789	0.000230712890625	0.719940185546875
690	0.7177734375	23.4805389407173	0.00022662353515625	0.71759033203125
691	0.71533203125	23.5049389406557	0.00022222900390625	0.715087890625
692	0.712890625	23.5293389405941	0.0002191162109375	0.712677001953125
693	0.71044921875	23.5537389405325	0.00021435546875	0.710296630859375
694	0.7080078125	23.5781389404709	0.00021051025390625	0.7078857421875
695	0.70556640625	23.6025389404093	0.000206329345703125	0.705413818359375
696	0.703125	23.6269389403477	0.000202606201171875	0.70294189453125
697	0.70068359375	23.6513389402861	0.000198699951171875	0.70050048828125
698	0.6982421875	23.6757389402245	0.00019500732421875	0.698028564453125
699	0.69580078125	23.7001389401629	0.000192779541015625	0.69561767578125
700	0.693359375	23.7245389401013	0.000187896728515625	0.6932373046875
701	0.69091796875	23.7489389400397	0.000185089111328125	0.69073486328125
702	0.6884765625	23.7733389399781	0.0001805419921875	0.68829345703125
703	0.68603515625	23.7977389399165	0.000176910400390625	0.685882568359375
704	0.68359375	23.8221389398549	0.00017266845703125	0.683441162109375
705	0.68115234375	23.8465389397933	0.000167938232421875	0.680999755859375
706	0.6787109375	23.8709389397317	0.00016595458984375	0.678558349609375
707	0.67626953125	23.8953389396701	0.00016119384765625	0.676116943359375
708	0.673828125	23.9197389396085	0.000159881591796875	0.6737060546875
709	0.67138671875	23.9441389395469	0.00015496826171875	0.6712646484375
710	0.6689453125	23.9685389394853	0.00015301513671875	0.668792724609375
711	0.66650390625	23.9929389394237	0.000149749755859375	0.66632080078125
712	0.6640625	24.017338939362	0.000145904541015625	0.663909912109375
713	0.66162109375	24.0417389393004	0.000143768310546875	0.6614990234375
714	0.6591796875	24.0661389392388	0.000140380859375	0.659027099609375
715	0.65673828125	24.0905389391772	0.00013812255859375	0.6566162109375
716	0.654296875	24.1149389391156	0.000134552001953125	0.654144287109375
717	0.65185546875	24.139338939054	0.000131805419921875	0.6517333984375
718	0.6494140625	24.1637389389924	0.000129638671875	0.6492919921875
719	0.64697265625	24.1881389389308	0.0001265869140625	0.6468505859375
720	0.64453125	24.2125389388692	0.000123931884765625	0.644439697265625
721	0.64208984375	24.2369389388076	0.000120941162109375	0.641937255859375
722	0.6396484375	24.261338938746	0.000119354248046875	0.639556884765625
723	0.63720703125	24.2857389386844	0.0001163330078125	0.6370849609375
724	0.634765625	24.3101389386228	0.00011376953125	0.634674072265625
725	0.63232421875	24.3345389385612	0.0001103515625	0.632232666015625
726	0.6298828125	24.3589389384996	0.000108612060546875	0.629852294921875
727	0.62744140625	24.383338938438	0.0001060791015625	0.627349853515625
728	0.625	24.4077389383764	0.00010235595703125	0.624908447265625
729	0.62255859375	24.4321389383148	0.000101776123046875	0.622467041015625
730	0.6201171875	24.4565389382532	9.9090576171875E-05	0.62005615234375
731	0.61767578125	24.4809389381916	9.8175048828125E-05	0.61761474609375
732	0.615234375	24.50533893813	9.539794921875E-05	0.615142822265625
733	0.61279296875	24.5297389380684	9.375E-05	0.612701416015625
734	0.6103515625	24.5541389380068	9.1217041015625E-05	0.6102294921875
735	0.60791015625	24.5785389379452	8.9385986328125E-05	0.607666015625
736	0.60546875	24.6029389378836	8.709716796875E-05	0.60528564453125
737	0.60302734375	24.6273389378219	8.4808349609375E-05	0.602813720703125
738	0.6005859375	24.6517389377603	8.428955078125E-05	0.60040283203125
739	0.59814453125	24.6761389376987	8.154296875E-05	0.597991943359375
740	0.595703125	24.7005389376371	8.0047607421875E-05	0.595489501953125
741	0.59326171875	24.7249389375755	7.855224609375E-05	0.59307861328125
742	0.5908203125	24.7493389375139	7.6568603515625E-05	0.590667724609375
743	0.58837890625	24.7737389374523	7.421875E-05	0.588226318359375
744	0.5859375	24.7981389373907	7.21435546875E-05	0.58575439453125
745	0.58349609375	24.8225389373291	7.0465087890625E-05	0.583343505859375
746	0.5810546875	24.8469389372675	6.9000244140625E-05	0.580902099609375
747	0.57861328125	24.8713389372059	6.7962646484375E-05	0.578399658203125
748	0.576171875	24.8957389371443	6.5887451171875E-05	0.576019287109375
749	0.57373046875	24.9201389370827	6.4697265625E-05	0.573577880859375
750	0.5712890625	24.9445389370211	6.2744140625E-05	0.5711669921875
751	0.56884765625	24.9689389369595	6.109619140625E-05	0.56866455078125
752	0.56640625	24.9933389368979	6.0699462890625E-05	0.566253662109375
753	0.56396484375	25.0177389368363	5.8319091796875E-05	0.563812255859375
754	0.5615234375	25.0421389367747	5.780029296875E-05	0.5614013671875
755	0.55908203125	25.0665389367131	5.426025390625E-05	0.5589599609375
756	0.556640625	25.0909389366515	5.4046630859375E-05	0.556488037109375
757	0.55419921875	25.1153389365899	5.28564453125E-05	0.5540771484375
758	0.5517578125	25.1397389365283	5.133056640625E-05	0.551605224609375
759	0.54931640625	25.1641389364667	4.99267578125E-05	0.5491943359375
760	0.546875	25.1885389364051	4.8004150390625E-05	0.5467529296875
761	0.54443359375	25.2129389363434	4.7955322265625E-05	0.5443115234375
762	0.5419921875	25.2373389362818	4.60357666015625E-05	0.541839599609375
763	0.53955078125	25.2617389362202	4.5989990234375E-05	0.539398193359375
764	0.537109375	25.2861389361586	4.4024658203125E-05	0.537017822265625
765	0.53466796875	25.310538936097	4.31732177734375E-05	0.534515380859375
766	0.5322265625	25.3349389360354	4.2169189453125E-05	0.532135009765625
767	0.52978515625	25.3593389359738	4.0704345703125E-05	0.529693603515625
768	0.52734375	25.3837389359122	4.07562255859375E-05	0.527191162109375
769	0.52490234375	25.4081389358506	3.84185791015625E-05	0.524749755859375
770	0.5224609375	25.432538935789	3.85772705078125E-05	0.52239990234375
771	0.52001953125	25.4569389357274	3.6895751953125E-05	0.5198974609375
772	0.517578125	25.4813389356658	3.7127685546875E-05	0.5174560546875
773	0.51513671875	25.5057389356042	3.5595703125E-05	0.515106201171875
774	0.5126953125	25.5301389355426	3.4881591796875E-05	0.512603759765625
775	0.51025390625	25.554538935481	3.44085693359375E-05	0.5101318359375
776	0.5078125	25.5789389354194	3.21746826171875E-05	0.50775146484375
777	0.50537109375	25.6033389353578	3.23822021484375E-05	0.5052490234375
778	0.5029296875	25.6277389352962	3.05938720703125E-05	0.50286865234375
779	0.50048828125	25.6521389352346	3.03009033203125E-05	0.500396728515625
780	0.498046875	25.676538935173	2.94281005859375E-05	0.497955322265625
781	0.49560546875	25.7009389351114	2.84149169921875E-05	0.495513916015625
782	0.4931640625	25.7253389350498	2.79998779296875E-05	0.493072509765625
783	0.49072265625	25.7497389349882	2.62786865234375E-05	0.490631103515625
784	0.48828125	25.7741389349266	2.633056640625E-05	0.488189697265625
785	0.48583984375	25.798538934865	2.48443603515625E-05	0.4857177734375
786	0.4833984375	25.8229389348033	2.44140625E-05	0.4832763671875
787	0.48095703125	25.8473389347417	2.362060546875E-05	0.48089599609375
788	0.478515625	25.8717389346801	2.28912353515625E-05	0.478424072265625
789	0.47607421875	25.8961389346185	2.1923828125E-05	0.47601318359375
790	0.4736328125	25.9205389345569	2.1221923828125E-05	0.47357177734375
791	0.47119140625	25.9449389344953	2.07733154296875E-05	0.471099853515625
792	0.46875	25.9693389344337	1.9317626953125E-05	0.46868896484375
793	0.46630859375	25.9937389343721	1.97021484375E-05	0.466278076171875
794	0.4638671875	26.0181389343105	1.820068359375E-05	0.463836669921875
795	0.46142578125	26.0425389342489	1.85150146484375E-05	0.461334228515625
796	0.458984375	26.0669389341873	1.75445556640625E-05	0.458984375
797	0.45654296875	26.0913389341257	1.724853515625E-05	0.45648193359375
798	0.4541015625	26.1157389340641	1.72271728515625E-05	0.454071044921875
799	0.45166015625	26.1401389340025	1.5118408203125E-05	0.451629638671875
800	0.44921875	26.1645389339409	1.571044921875E-05	0.44921875
801	0.44677734375	26.1889389338793	1.368408203125E-05	0.446685791015625
802	0.4443359375	26.2133389338177	1.431884765625E-05	0.444244384765625
803	0.44189453125	26.2377389337561	1.4129638671875E-05	0.44189453125
804	0.439453125	26.2621389336945	1.27716064453125E-05	0.43939208984375
805	0.43701171875	26.2865389336329	1.1907958984375E-05	0.436981201171875
806	0.4345703125	26.3109389335713	1.11328125E-05	0.43450927734375
807	0.43212890625	26.3353389335097	1.16546630859375E-05	0.432098388671875
808	0.4296875	26.3597389334481	9.87548828125E-06	0.42962646484375
809	0.42724609375	26.3841389333865	1.0687255859375E-05	0.427276611328125
810	0.4248046875	26.4085389333248	9.613037109375E-06	0.4248046875
811	0.42236328125	26.4329389332632	9.53369140625E-06	0.42236328125
812	0.419921875	26.4573389332016	8.966064453125E-06	0.419891357421875
813	0.41748046875	26.48173893314	8.2733154296875E-06	0.41748046875
814	0.4150390625	26.5061389330784	8.5174560546875E-06	0.4150390625
815	0.41259765625	26.5305389330168	6.6986083984375E-06	0.412506103515625
816	0.41015625	26.5549389329552	6.5521240234375E-06	0.410064697265625
817	0.40771484375	26.5793389328936	5.230712890625E-06	0.407562255859375
818	0.4052734375	26.603738932832	5.3436279296875E-06	0.4051513671875
819	0.40283203125	26.6281389327704	5.126953125E-06	0.4027099609375
820	0.400390625	26.6525389327088	4.168701171875E-06	0.40032958984375
821	0.39794921875	26.6769389326472	4.095458984375E-06	0.3978271484375
822	0.3955078125	26.7013389325856	3.8299560546875E-06	0.395477294921875
823	0.39306640625	26.725738932524	3.826904296875E-06	0.3929443359375
824	0.390625	26.7501389324624	2.33001708984375E-06	0.3905029296875
825	0.38818359375	26.7745389324008	2.57354736328125E-06	0.38818359375
826	0.3857421875	26.7989389323392	1.53839111328125E-06	0.3857421875
827	0.38330078125	26.8233389322776	1.513671875E-06	0.383270263671875
828	0.380859375	26.847738932216	1.4208984375E-06	0.380889892578125
829	0.37841796875	26.8721389321544	3.8299560546875E-07	0.378387451171875
830	0.3759765625	26.8965389320928	1.2420654296875E-06	0.3759765625
831	0.37353515625	26.9209389320312	-5.780029296875E-07	0.37353515625
832	0.37109375	26.9453389319696	1.01318359375E-07	0.37109375
833	0.36865234375	26.969738931908	-1.23565673828125E-06	0.368682861328125
834	0.3662109375	26.9941389318464	-8.0963134765625E-07	0.366241455078125
835	0.36376953125	27.0185389317847	-1.54205322265625E-06	0.363800048828125
836	0.361328125	27.0429389317231	-1.54876708984375E-06	0.361358642578125
837	0.35888671875	27.0673389316615	-1.90277099609375E-06	0.358978271484375
838	0.3564453125	27.0917389315999	-2.91534423828125E-06	0.356536865234375
839	0.35400390625	27.1161389315383	-2.19482421875E-06	0.354034423828125
840	0.3515625	27.1405389314767	-3.6932373046875E-06	0.351593017578125
841	0.34912109375	27.1649389314151	-3.4869384765625E-06	0.3492431640625
842	0.3466796875	27.1893389313535	-4.4586181640625E-06	0.346771240234375
843	0.34423828125	27.2137389312919	-4.87060546875E-06	0.34423828125
844	0.341796875	27.2381389312303	-5.078125E-06	0.341888427734375
845	0.33935546875	27.2625389311687	-6.0791015625E-06	0.33941650390625
846	0.3369140625	27.2869389311071	-5.8380126953125E-06	0.33697509765625
847	0.33447265625	27.3113389310455	-6.9488525390625E-06	0.33447265625
848	0.33203125	27.3357389309839	-5.999755859375E-06	0.33203125
849	0.32958984375	27.3601389309223	-7.2509765625E-06	0.32965087890625
850	0.3271484375	27.3845389308607	-6.9488525390625E-06	0.3272705078125
851	0.32470703125	27.4089389307991	-7.6446533203125E-06	0.32476806640625
852	0.322265625	27.4333389307375	-8.3099365234375E-06	0.3223876953125
853	0.31982421875	27.4577389306759	-7.861328125E-06	0.31988525390625
854	0.3173828125	27.4821389306143	-9.466552734375E-06	0.3175048828125
855	0.31494140625	27.5065389305527	-8.6822509765625E-06	0.31512451171875
856	0.3125	27.5309389304911	-1.02325439453125E-05	0.31256103515625
857	0.31005859375	27.5553389304295	-9.7259521484375E-06	0.3101806640625
858	0.3076171875	27.5797389303679	-1.06964111328125E-05	0.3077392578125
859	0.30517578125	27.6041389303062	-1.08306884765625E-05	0.305328369140625
860	0.302734375	27.6285389302446	-1.114501953125E-05	0.3028564453125
861	0.30029296875	27.652938930183	-1.2445068359375E-05	0.300445556640625
862	0.2978515625	27.6773389301214	-1.14013671875E-05	0.29803466796875
863	0.29541015625	27.7017389300598	-1.28204345703125E-05	0.295562744140625
864	0.29296875	27.7261389299982	-1.19171142578125E-05	0.29315185546875
865	0.29052734375	27.7505389299366	-1.2969970703125E-05	0.29071044921875
866	0.2880859375	27.774938929875	-1.31683349609375E-05	0.288238525390625
867	0.28564453125	27.7993389298134	-1.3189697265625E-05	0.2857666015625
868	0.283203125	27.8237389297518	-1.37939453125E-05	0.283416748046875
869	0.28076171875	27.8481389296902	-1.3604736328125E-05	0.280914306640625
870	0.2783203125	27.8725389296286	-1.4990234375E-05	0.278472900390625
871	0.27587890625	27.896938929567	-1.41632080078125E-05	0.27606201171875
872	0.2734375	27.9213389295054	-1.54144287109375E-05	0.27349853515625
873	0.27099609375	27.9457389294438	-1.512451171875E-05	0.271240234375
874	0.2685546875	27.9701389293822	-1.58294677734375E-05	0.268798828125
875	0.26611328125	27.9945389293206	-1.6351318359375E-05	0.266326904296875
876	0.263671875	28.018938929259	-1.59210205078125E-05	0.263885498046875
877	0.26123046875	28.0433389291974	-1.72119140625E-05	0.261474609375
878	0.2587890625	28.0677389291358	-1.6510009765625E-05	0.259002685546875
879	0.25634765625	28.0921389290742	-1.8109130859375E-05	0.256591796875
880	0.25390625	28.1165389290126	-1.7431640625E-05	0.254180908203125
881	0.25146484375	28.140938928951	-1.8316650390625E-05	0.251678466796875
882	0.2490234375	28.1653389288894	-1.84600830078125E-05	0.24932861328125
883	0.24658203125	28.1897389288278	-1.86798095703125E-05	0.24688720703125
884	0.244140625	28.2141389287661	-1.93756103515625E-05	0.244384765625
885	0.24169921875	28.2385389287045	-1.85089111328125E-05	0.241943359375
886	0.2392578125	28.2629389286429	-2.00042724609375E-05	0.23956298828125
887	0.23681640625	28.2873389285813	-1.9287109375E-05	0.237152099609375
888	0.234375	28.3117389285197	-2.0361328125E-05	0.234649658203125
889	0.23193359375	28.3361389284581	-2.0184326171875E-05	0.232208251953125
890	0.2294921875	28.3605389283965	-2.07244873046875E-05	0.229705810546875
891	0.22705078125	28.3849389283349	-2.12066650390625E-05	0.22735595703125
892	0.224609375	28.4093389282733	-2.12005615234375E-05	0.22491455078125
893	0.22216796875	28.4337389282117	-2.2467041015625E-05	0.22247314453125
894	0.2197265625	28.4581389281501	-2.16033935546875E-05	0.22003173828125
895	0.21728515625	28.4825389280885	-2.30712890625E-05	0.217620849609375
896	0.21484375	28.5069389280269	-2.225341796875E-05	0.215240478515625
897	0.21240234375	28.5313389279653	-2.3223876953125E-05	0.212738037109375
898	0.2099609375	28.5557389279037	-2.35076904296875E-05	0.210296630859375
899	0.20751953125	28.5801389278421	-2.35809326171875E-05	0.207855224609375
900	0.205078125	28.6045389277805	-2.4359130859375E-05	0.2054443359375
901	0.20263671875	28.6289389277189	-2.37701416015625E-05	0.20306396484375
902	0.2001953125	28.6533389276573	-2.53021240234375E-05	0.200531005859375
903	0.19775390625	28.6777389275957	-2.454833984375E-05	0.198150634765625
904	0.1953125	28.7021389275341	-2.53173828125E-05	0.195770263671875
905	0.19287109375	28.7265389274725	-2.4981689453125E-05	0.1932373046875
906	0.1904296875	28.7509389274109	-2.5537109375E-05	0.190826416015625
907	0.18798828125	28.7753389273493	-2.62908935546875E-05	0.18841552734375
908	0.185546875	28.7997389272876	-2.5982666015625E-05	0.185943603515625
909	0.18310546875	28.824138927226	-2.74566650390625E-05	0.183563232421875
910	0.1806640625	28.8485389271644	-2.6519775390625E-05	0.18109130859375
911	0.17822265625	28.8729389271028	-2.7978515625E-05	0.1785888671875
912	0.17578125	28.8973389270412	-2.75360107421875E-05	0.176177978515625
913	0.17333984375	28.9217389269796	-2.82684326171875E-05	0.17376708984375
914	0.1708984375	28.946138926918	-2.8363037109375E-05	0.171417236328125
915	0.16845703125	28.9705389268564	-2.82928466796875E-05	0.168914794921875
916	0.166015625	28.9949389267948	-2.95745849609375E-05	0.166473388671875
917	0.16357421875	29.0193389267332	-2.87445068359375E-05	0.164093017578125
918	0.1611328125	29.0437389266716	-2.998046875E-05	0.161590576171875
919	0.15869140625	29.06813892661	-2.935791015625E-05	0.15924072265625
920	0.15625	29.0925389265484	-3.04412841796875E-05	0.156707763671875
921	0.15380859375	29.1169389264868	-3.0584716796875E-05	0.153839111328125
922	0.1513671875	29.1413389264252	-3.0712890625E-05	0.1514892578125
923	0.14892578125	29.1657389263636	-3.1365966796875E-05	0.149017333984375
924	0.146484375	29.190138926302	-3.04962158203125E-05	0.1466064453125
925	0.14404296875	29.2145389262404	-3.19244384765625E-05	0.144134521484375
926	0.1416015625	29.2389389261788	-3.1072998046875E-05	0.1417236328125
927	0.13916015625	29.2633389261172	-3.2171630859375E-05	0.1392822265625
928	0.13671875	29.2877389260556	-3.172607421875E-05	0.1368408203125
929	0.13427734375	29.312138925994	-3.2366943359375E-05	0.134429931640625
930	0.1318359375	29.3365389259324	-3.27362060546875E-05	0.1319580078125
931	0.12939453125	29.3609389258708	-3.245849609375E-05	0.129486083984375
932	0.126953125	29.3853389258092	-3.3648681640625E-05	0.127105712890625
933	0.12451171875	29.4097389257475	-3.2720947265625E-05	0.124603271484375
934	0.1220703125	29.4341389256859	-3.43017578125E-05	0.1221923828125
935	0.11962890625	29.4585389256243	-3.36944580078125E-05	0.119720458984375
936	0.1171875	29.4829389255627	-3.42559814453125E-05	0.117279052734375
937	0.11474609375	29.5073389255011	-3.44329833984375E-05	0.114837646484375
938	0.1123046875	29.5317389254395	-3.45672607421875E-05	0.11236572265625
939	0.10986328125	29.5561389253779	-3.555908203125E-05	0.1099853515625
940	0.107421875	29.5805389253163	-3.49212646484375E-05	0.107574462890625
941	0.10498046875	29.6049389252547	-3.62640380859375E-05	0.105133056640625
942	0.1025390625	29.6293389251931	-3.54827880859375E-05	0.1026611328125
943	0.10009765625	29.6537389251315	-3.67279052734375E-05	0.10015869140625
944	0.09765625	29.6781389250699	-3.6578369140625E-05	0.0977783203125
945	0.09521484375	29.7025389250083	-3.69842529296875E-05	0.0953369140625
946	0.0927734375	29.7269389249467	-3.76983642578125E-05	0.09283447265625
947	0.09033203125	29.7513389248851	-3.7200927734375E-05	0.0904541015625
948	0.087890625	29.7757389248235	-3.87420654296875E-05	0.087921142578125
949	0.08544921875	29.8001389247619	-3.7884521484375E-05	0.0855712890625
950	0.0830078125	29.8245389247003	-3.89678955078125E-05	0.083160400390625
951	0.08056640625	29.8489389246387	-3.86505126953125E-05	0.0806884765625
952	0.078125	29.8733389245771	-3.93402099609375E-05	0.078277587890625
953	0.07568359375	29.8977389245155	-4.002685546875E-05	0.07574462890625
954	0.0732421875	29.9221389244539	-3.9666748046875E-05	0.073333740234375
955	0.07080078125	29.9465389243923	-4.0826416015625E-05	0.0709228515625
956	0.068359375	29.9709389243307	-3.990478515625E-05	0.06854248046875
957	0.06591796875	29.995338924269	-4.13665771484375E-05	0.066009521484375
958	0.0634765625	30.0197389242074	-4.07379150390625E-05	0.063629150390625
959	0.06103515625	30.0441389241458	-4.15985107421875E-05	0.061126708984375
960	0.05859375	30.0685389240842	-4.16046142578125E-05	0.0587158203125
961	0.05615234375	30.0929389240226	-4.1796875E-05	0.0562744140625
962	0.0537109375	30.117338923961	-4.27520751953125E-05	0.053802490234375
963	0.05126953125	30.1417389238994	-4.2022705078125E-05	0.051422119140625
964	0.048828125	30.1661389238378	-4.32830810546875E-05	0.0489715576171875
965	0.04638671875	30.1905389237762	-4.23583984375E-05	0.046533203125
966	0.0439453125	30.2149389237146	-4.356689453125E-05	0.044097900390625
967	0.04150390625	30.239338923653	-4.3408203125E-05	0.0416656494140625
968	0.0390625	30.2637389235914	-4.3658447265625E-05	0.0391876220703125
969	0.03662109375	30.2881389235298	-4.42596435546875E-05	0.036773681640625
970	0.0341796875	30.3125389234682	-4.39453125E-05	0.0343170166015625
971	0.03173828125	30.3369389234066	-4.525146484375E-05	0.0318756103515625
972	0.029296875	30.361338923345	-4.43572998046875E-05	0.029461669921875
973	0.02685546875	30.3857389232834	-4.559326171875E-05	0.0270111083984375
974	0.0244140625	30.4101389232218	-4.50164794921875E-05	0.0245819091796875
975	0.02197265625	30.4345389231602	-4.593505859375E-05	0.02213134765625
976	0.01953125	30.4589389230986	-4.6295166015625E-05	0.019683837890625
977	0.01708984375	30.483338923037	-4.62188720703125E-05	0.01724853515625
978	0.0146484375	30.5077389229754	-4.718017578125E-05	0.0148193359375
979	0.01220703125	30.5321389229138	-4.647216796875E-05	0.012359619140625
980	0.009765625	30.5565389228522	-4.80133056640625E-05	0.009906005859375
981	0.00732421875	30.5809389227906	-4.7265625E-05	0.007476806640625
982	0.0048828125	30.6053389227289	-4.82086181640625E-05	0.00505676269531249
983	0.00244140625	30.6297389226673	-4.8187255859375E-05	0.00260314941406251
984	0	30.6541389226057	-4.85137939453125E-05	0.000180053710937503
985	0.00244140625	30.6785389225441	-4.8797607421875E-05	0.0025970458984375
986	0.0048828125	30.7029389224825	-4.7601318359375E-05	0.00504455566406251
