Index	Time (s)	WE(1).Potential (V)	Corrected time (s)	dWE(1).Potential/dt (V/s)	OCP value (V)
1	31.6858569200009	0.346466064453125	0	0	0.352590523514093
2	31.7858569197484	0.347320556640625	0.0999999997475243	0.00854488927870989	
3	31.885856919496	0.350341796875	0.199999999495049	0.0410459861159325	
4	31.9858569192435	0.351409912109375	0.299999999242573	-0.0128173343837261	
5	32.085856918991	0.349609375	0.399999998990097	-0.0354002565145493	
6	32.1858569187385	0.351226806640625	0.499999998737621	0.0542193576693535	
7	32.285856918486	0.348419189453125	0.599999998485146	-0.0763445198535919	
8	32.3858569182336	0.347747802734375	0.69999999823267	0.0258381180465221	
9	32.4858569179811	0.351593017578125	0.799999997980194	0.0689694657921791	
10	32.5858569177286	0.35009765625	0.899999997727718	-0.0745134726166725	
11	32.6858569174761	0.348175048828125	0.999999997475243	-0.00498451897874475	
12	32.7858569172237	0.350616455078125	1.09999999722277	0.062204759567976	
13	32.8858569169712	0.35028076171875	1.19999999697029	-0.0410459861159325	
14	32.9858569167187	0.349609375	1.29999999671782	-0.000254312180913985	
15	33.0858569164662	0.350372314453125	1.39999999646534	0.0207010116428137	
16	33.1858569162138	0.352081298828125	1.49999999621286	0.0201923865824938	
17	33.2858569159613	0.350067138671875	1.59999999596039	-0.0543210804462433	
18	33.3858569157088	0.353118896484375	1.69999999570791	0.0851437151432037	
19	33.4858569154563	0.352935791015625	1.79999999545544	-0.0456744693219662	
20	33.5858569152039	0.35296630859375	1.89999999520296	0.0128681967034936	
21	33.6858569149514	0.350372314453125	1.99999999495049	-0.0485227629542351	
22	33.7858569146989	0.3516845703125	2.09999999469801	0.0544228069484234	
23	33.8858569144464	0.351531982421875	2.19999999444553	-0.0267536416649818	
24	33.985856914194	0.35150146484375	2.29999999419306	0.00559486821293831	
25	34.0858569139415	0.357208251953125	2.39999999394058	0.104471445083618	
26	34.185856913689	0.356719970703125	2.49999999368811	-0.0756324455142021	
27	34.2858569134365	0.356109619140625	2.59999999343563	0.0135294077917933	
28	34.3858569131841	0.353546142578125	2.69999999318316	-0.0415037497878075	
29	34.4858569129316	0.3553466796875	2.79999999293068	0.0608823373913765	
30	34.5858569126791	0.3575439453125	2.8999999926782	0.0107319736853242	
31	34.6858569124266	0.35662841796875	2.99999999242573	-0.0364175029098988	
32	34.7858569121742	0.357269287109375	3.09999999217325	0.0297545250505209	
33	34.8858569119217	0.3599853515625	3.19999999192078	0.039265800267458	
34	34.9858569116692	0.35968017578125	3.2999999916683	-0.0351459421217442	
35	35.0858569114167	0.3577880859375	3.39999999141583	-0.0220742970705032	
36	35.1858569111643	0.35693359375	3.49999999116335	0.00539141846820712	
37	35.2858569109118	0.35369873046875	3.59999999091087	-0.0556435063481331	
38	35.3858569106593	0.355804443359375	3.6999999906584	0.0734962224960327	
39	35.4858569104068	0.353240966796875	3.79999999040592	-0.0823462828993797	
40	35.5858569101543	0.358154296875	3.89999999015345	0.127003505825996	
41	35.6858569099019	0.35821533203125	3.99999998990097	-0.0647478848695755	
42	35.7858569096494	0.361968994140625	4.0999999896485	0.0844825059175491	
43	35.8858569093969	0.359588623046875	4.19999998939602	-0.0872290804982185	
44	35.9858569091444	0.3594970703125	4.29999998914354	0.0386045873165131	
45	36.085856908892	0.357940673828125	4.39999998889107	-0.0354002565145493	
46	36.1858569086395	0.35821533203125	4.49999998863859	0.022888096049428	
47	36.285856908387	0.356536865234375	4.59999998838612	-0.0391640774905682	
48	36.3858569081345	0.361297607421875	4.69999998813364	0.107777498662472	
49	36.4858569078821	0.36181640625	4.79999998788116	-0.0516253709793091	
50	36.5858569076296	0.361907958984375	4.89999998762869	0.0114949103444815	
51	36.6858569073771	0.363037109375	4.99999998737621	0.0213622227311134	
52	36.7858569071246	0.358245849609375	5.09999998712374	-0.100707620382309	
53	36.8858569068722	0.362213134765625	5.19999998687126	0.132394924759865	
54	36.9858569066197	0.36004638671875	5.29999998661879	-0.101979181170464	
55	37.0858569063672	0.358154296875	5.39999998636631	0.00381468283012509	
56	37.1858569061147	0.361053466796875	5.49999998611383	0.0680030807852745	
57	37.2858569058623	0.363922119140625	5.59999998586136	0.0124612972140312	
58	37.3858569056098	0.3648681640625	5.69999998560888	-0.00645952951163054	
59	37.4858569053573	0.367340087890625	5.79999998535641	0.0438434183597565	
60	37.5858569051048	0.364471435546875	5.89999998510393	-0.0782772898674011	
61	37.6858569048524	0.362579345703125	5.99999998485146	0.00701901642605662	
62	37.7858569045999	0.368194580078125	6.09999998459898	0.115457728505135	
63	37.8858569043474	0.365081787109375	6.1999999843465	-0.128885418176651	
64	37.9858569040949	0.36260986328125	6.29999998409403	0.00971472542732954	
65	38.0858569038425	0.365875244140625	6.39999998384155	0.0783281549811363	
66	38.18585690359	0.366485595703125	6.49999998358908	-0.0351459421217442	
67	38.2858569033375	0.36627197265625	6.5999999833366	-0.000152587308548391	
68	38.385856903085	0.364898681640625	6.69999998308413	-0.0206501483917236	
69	38.4858569028326	0.3636474609375	6.79999998283165	-0.00762936566025019	
70	38.5858569025801	0.364227294921875	6.89999998257917	0.0206501483917236	
71	38.6858569023276	0.364532470703125	6.9999999823267	-0.00534055568277836	
72	38.7858569020751	0.36199951171875	7.09999998207422	-0.0480650030076504	
73	38.8858569018226	0.364471435546875	7.19999998182175	0.0758867561817169	
74	38.9858569015702	0.365570068359375	7.29999998156927	-0.0171406418085098	
75	39.0858569013177	0.366119384765625	7.3999999813168	0.00549314310774207	
76	39.1858569010652	0.364898681640625	7.49999998106432	-0.0251260437071323	
77	39.2858569008127	0.36468505859375	7.59999998081184	0.0121561223641038	
78	39.3858569005603	0.365570068359375	7.69999998055937	0.0146483816206455	
79	39.4858569003078	0.366058349609375	7.79999998030689	-0.00208535999991	
80	39.5858569000553	0.36517333984375	7.89999998005442	-0.0189716890454292	
81	39.6858568998028	0.3634033203125	7.99999997980194	-0.0204975623637438	
82	39.7858568995504	0.366485595703125	8.09999997954947	0.0742082968354225	
83	39.8858568992979	0.3651123046875	8.19999997929699	-0.0670366883277893	
84	39.9858568990454	0.363433837890625	8.29999997904451	-0.00447589438408613	
85	40.0858568987929	0.364715576171875	8.39999997879204	0.0385028645396233	
86	40.1858568985405	0.361236572265625	8.49999997853956	-0.0843299180269241	
87	40.285856898288	0.358306884765625	8.59999997828709	-0.00885006412863731	
88	40.3858568980355	0.35833740234375	8.69999997803461	0.0231424085795879	
89	40.485856897783	0.359619140625	8.79999997778214	0.0133768208324909	
90	40.5858568975306	0.360137939453125	8.89999997752966	-0.00534055568277836	
91	40.6858568972781	0.363433837890625	8.99999997727718	0.058644387871027	
92	40.7858568970256	0.364227294921875	9.09999997702471	-0.0221760217100382	
93	40.8858568967731	0.362701416015625	9.19999997677223	-0.0262450166046619	
94	40.9858568965207	0.3609619140625	9.29999997651976	-0.011444048024714	
95	41.0858568962682	0.36114501953125	9.39999997626728	0.0185647886246443	
96	41.1858568960157	0.3612060546875	9.49999997601481	-0.00681556668132544	
97	41.2858568957632	0.360809326171875	9.59999997576233	-0.00737505313009024	
98	41.3858568955108	0.3616943359375	9.69999997550985	0.0210570488125086	
99	41.4858568952583	0.360137939453125	9.79999997525738	-0.0401813238859177	
100	41.5858568950058	0.361419677734375	9.8999999750049	0.0446063578128815	
101	41.6858568947533	0.36322021484375	9.99999997475243	0.0128681967034936	
102	41.7858568945009	0.36004638671875	10.0999999745	-0.0749203711748123	
103	41.8858568942484	0.361236572265625	10.1999999742475	0.0648496076464653	
104	41.9858568939959	0.36163330078125	10.299999973995	-0.0171915031969547	
105	42.0858568937434	0.364044189453125	10.3999999737425	0.0435382463037968	
106	42.1858568934909	0.35992431640625	10.49999997349	-0.102335222065449	
107	42.2858568932385	0.3651123046875	10.5999999732376	0.151214018464088	
108	42.385856892986	0.36517333984375	10.6999999729851	-0.0731401816010475	
109	42.4858568927335	0.36090087890625	10.7999999727326	-0.061746995896101	
110	42.585856892481	0.36016845703125	10.8999999724801	0.036620955914259	
111	42.6858568922286	0.3587646484375	10.9999999722277	-0.0314329862594604	
112	42.7858568919761	0.35955810546875	11.0999999719752	0.0284829642623663	
113	42.8858568917236	0.36199951171875	11.1999999717227	0.0308226365596056	
114	42.9858568914711	0.364501953125	11.2999999714702	0.0200398005545139	
115	43.0858568912187	0.363800048828125	11.3999999712178	-0.0339252464473248	
116	43.1858568909662	0.366973876953125	11.4999999709653	0.0747169181704521	
117	43.2858568907137	0.36627197265625	11.5999999707128	-0.0522357225418091	
118	43.3858568904612	0.36151123046875	11.6999999704603	-0.0685117021203041	
119	43.4858568902088	0.364654541015625	11.7999999702079	0.110829249024391	
120	43.5858568899563	0.3614501953125	11.8999999699554	-0.111287012696266	
121	43.6858568897038	0.36273193359375	11.9999999697029	0.0713599994778633	
122	43.7858568894513	0.35943603515625	12.0999999694504	-0.0860592424869537	
123	43.8858568891989	0.363861083984375	12.199999969198	0.123850032687187	
124	43.9858568889464	0.36004638671875	12.2999999689455	-0.13254751265049	
125	44.0858568886939	0.36065673828125	12.399999968693	0.0704444721341133	
126	44.1858568884414	0.3599853515625	12.4999999684405	-0.0321450605988503	
127	44.285856888189	0.357696533203125	12.5999999681881	-0.0320941954851151	
128	44.3858568879365	0.35845947265625	12.6999999679356	0.0384520031511784	
129	44.485856887684	0.3592529296875	12.7999999676831	-0.0019836351275444	
130	44.5858568874315	0.361541748046875	12.8999999674306	0.0352476686239243	
131	44.6858568871791	0.360595703125	12.9999999671782	-0.0414020232856274	
132	44.7858568869266	0.360504150390625	13.0999999669257	0.0169880539178848	
133	44.8858568866741	0.357147216796875	13.1999999666732	-0.0636289045214653	
134	44.9858568864216	0.358001708984375	13.2999999664207	0.0545245334506035	
135	45.0858568861692	0.355499267578125	13.3999999661683	-0.0670366883277893	
136	45.1858568859167	0.3572998046875	13.4999999659158	0.0650530532002449	
137	45.2858568856642	0.356719970703125	13.5999999656633	-0.0399778746068478	
138	45.3858568854117	0.358367919921875	13.6999999654108	0.042978759855032	
139	45.4858568851593	0.361358642578125	13.7999999651583	0.0336709320545197	
140	45.5858568849068	0.3599853515625	13.8999999649059	-0.0545753948390484	
141	45.6858568846543	0.35650634765625	13.9999999646534	-0.0377907902002335	
142	45.7858568844018	0.35906982421875	14.0999999644009	0.0830074995756149	
143	45.8858568841493	0.357025146484375	14.1999999641484	-0.0789893642067909	
144	45.9858568838969	0.355682373046875	14.299999963896	0.00778195261955261	
145	46.0858568836444	0.35791015625	14.3999999636435	0.0496926009654999	
146	46.1858568833919	0.357635498046875	14.499999963391	-0.0355019792914391	
147	46.2858568831394	0.356536865234375	14.5999999631385	-0.00951127521693707	
148	46.385856882887	0.35546875	14.6999999628861	-0.00768022798001766	
149	46.4858568826345	0.3558349609375	14.7999999626336	0.0155130429193377	
150	46.585856882382	0.353973388671875	14.8999999623811	-0.0419615097343922	
151	46.6858568821295	0.350311279296875	14.9999999621286	-0.0441994555294514	
152	46.7858568818771	0.35186767578125	15.0999999618762	0.0650530532002449	
153	46.8858568816246	0.350555419921875	15.1999999616237	-0.0544228069484234	
154	46.9858568813721	0.35162353515625	15.2999999613712	0.0400796011090279	
155	47.0858568811196	0.3536376953125	15.3999999611187	0.0200906619429588	
156	47.1858568808672	0.355804443359375	15.4999999608663	0.019785488024354	
157	47.2858568806147	0.35791015625	15.5999999606138	0.0200398005545139	
158	47.3858568803622	0.355072021484375	15.6999999603613	-0.0693763643503189	
159	47.4858568801097	0.35052490234375	15.7999999601088	-0.0432330705225468	
160	47.5858568798573	0.35052490234375	15.8999999598564	0.0435891076922417	
161	47.6858568796048	0.352783203125	15.9999999596039	0.0262450166046619	
162	47.7858568793523	0.350311279296875	16.0999999593514	-0.0716651752591133	
163	47.8858568790998	0.35125732421875	16.1999999590989	0.0537107326090336	
164	47.9858568788474	0.355072021484375	16.2999999588465	0.0506589859724045	
165	48.0858568785949	0.35577392578125	16.399999958594	-0.0284829642623663	
166	48.1858568783424	0.35296630859375	16.4999999583415	-0.0469460301101208	
167	48.2858568780899	0.351287841796875	16.599999958089	0.00432330695912242	
168	48.3858568778375	0.35040283203125	16.6999999578366	-0.00600176770240068	
169	48.485856877585	0.3505859375	16.7999999575841	0.00808712746948004	
170	48.5858568773325	0.350921630859375	16.8999999573316	0.00106811115983874	
171	48.68585687708	0.354339599609375	16.9999999570791	0.0593564622104168	
172	48.7858568768276	0.358062744140625	17.0999999568267	0.0295002125203609	
173	48.8858568765751	0.356109619140625	17.1999999565742	-0.0678504928946495	
174	48.9858568763226	0.35723876953125	17.2999999563217	0.0558978170156479	
175	49.0858568760701	0.355133056640625	17.3999999560692	-0.0582883507013321	
176	49.1858568758176	0.352752685546875	17.4999999558167	-0.0153095936402678	
177	49.2858568755652	0.354217529296875	17.5999999555643	0.0476072393357754	
178	49.3858568753127	0.35528564453125	17.6999999553118	-0.0054422807879746	
179	49.4858568750602	0.35687255859375	17.7999999550593	0.0215148106217384	
180	49.5858568748077	0.35699462890625	17.8999999548068	-0.0127156088128686	
181	49.6858568745553	0.35723876953125	17.9999999545544	0.00834143999963999	
182	49.7858568743028	0.360260009765625	18.0999999543019	0.0529477968811989	
183	49.8858568740503	0.359405517578125	18.1999999540494	-0.0500994995236397	
184	49.9858568737978	0.3570556640625	18.2999999537969	-0.023040683940053	
185	50.0858568735454	0.35662841796875	18.3999999535445	0.0167337413877249	
186	50.1858568732929	0.35601806640625	18.499999953292	-0.0140380328521132	
187	50.2858568730404	0.3558349609375	18.5999999530395	0.00233967206440866	
188	50.3858568727879	0.357269287109375	18.699999952787	0.0263976044952869	
189	50.4858568725355	0.35693359375	18.7999999525346	-0.0234984457492828	
190	50.585856872283	0.356658935546875	18.8999999522821	0.00366209540516138	
191	50.6858568720305	0.359100341796875	18.9999999520296	0.0468443036079407	
192	50.785856871778	0.3548583984375	19.0999999517771	-0.107167154550552	
193	50.8858568715256	0.35504150390625	19.1999999515247	0.0609840601682663	
194	50.9858568712731	0.352203369140625	19.2999999512722	-0.0683082491159439	
195	51.0858568710206	0.355926513671875	19.3999999510197	0.101979181170464	
196	51.1858568707681	0.351959228515625	19.4999999507672	-0.125630214810371	
197	51.2858568705157	0.359527587890625	19.5999999505148	0.197447970509529	
198	51.3858568702632	0.357025146484375	19.6999999502623	-0.147399336099625	
199	51.4858568700107	0.35479736328125	19.7999999500098	0.0135802701115608	
200	51.5858568697582	0.353485107421875	19.8999999497573	-0.00640866719186306	
201	51.6858568695058	0.35247802734375	19.9999999495049	-0.0105793867260218	
202	51.7858568692533	0.355010986328125	20.0999999492524	0.0538124591112137	
203	51.8858568690008	0.354400634765625	20.1999999489999	-0.0440977327525616	
204	51.9858568687483	0.353759765625	20.2999999487474	0.00381468283012509	
205	52.0858568684959	0.3544921875	20.399999948495	0.0188699644058943	
206	52.1858568682434	0.35504150390625	20.4999999482425	-0.000610349234193563	
207	52.2858568679909	0.355255126953125	20.59999994799	-5.0862436182797E-05	
208	52.3858568677384	0.357330322265625	20.6999999477375	0.0373838916420937	
209	52.4858568674859	0.355560302734375	20.799999947485	-0.0559486784040928	
210	52.5858568672335	0.3519287109375	20.8999999472326	-0.0390114895999432	
211	52.685856866981	0.35235595703125	20.9999999469801	0.0443011820316315	
212	52.7858568667285	0.35693359375	21.0999999467276	0.0668332427740097	
213	52.885856866476	0.35400390625	21.1999999464751	-0.105692140758038	
214	52.9858568662236	0.35150146484375	21.2999999462227	0.00356037053279579	
215	53.0858568659711	0.355499267578125	21.3999999459702	0.0927222222089767	
216	53.1858568657186	0.355133056640625	21.4999999457177	-0.0616961345076561	
217	53.2858568654661	0.355438232421875	21.5999999454652	0.023193271830678	
218	53.3858568652137	0.35711669921875	21.6999999452128	0.025990704074502	
219	53.4858568649612	0.355926513671875	21.7999999449603	-0.0403847731649876	
220	53.5858568647087	0.35650634765625	21.8999999447078	0.0301105622202158	
221	53.6858568644562	0.358245849609375	21.9999999444553	0.0211587734520435	
222	53.7858568642038	0.355438232421875	22.0999999442029	-0.0698341280221939	
223	53.8858568639513	0.355438232421875	22.1999999439504	0.0385537259280682	
224	53.9858568636988	0.356689453125	22.2999999436979	0.0135802701115608	
225	54.0858568634463	0.359100341796875	22.3999999434454	0.0296019371598959	
226	54.1858568631939	0.36077880859375	22.499999943193	0.00681556668132544	
227	54.2858568629414	0.358154296875	22.5999999429405	-0.0596616379916668	
228	54.3858568626889	0.35675048828125	22.699999942688	0.0104776620864868	
229	54.4858568624364	0.3560791015625	22.7999999424355	-0.00467934412881732	
230	54.585856862184	0.357330322265625	22.8999999421831	0.0260924305766821	
231	54.6858568619315	0.355682373046875	22.9999999419306	-0.0470477528870106	
232	54.785856861679	0.35736083984375	23.0999999416781	0.0541684962809086	
233	54.8858568614265	0.356719970703125	23.1999999414256	-0.0368244051933289	
234	54.9858568611741	0.35601806640625	23.2999999411732	0.000203449744731188	
235	55.0858568609216	0.35546875	23.3999999409207	-0.00401813257485628	
236	55.1858568606691	0.35736083984375	23.4999999406682	0.0387571752071381	
237	55.2858568604166	0.35589599609375	23.5999999404157	-0.0507607124745846	
238	55.3858568601642	0.3563232421875	23.6999999401633	0.0312295351177454	
239	55.4858568599117	0.357818603515625	23.7999999399108	0.0175475403666496	
240	55.5858568596592	0.356170654296875	23.8999999396583	-0.046233955770731	
241	55.6858568594067	0.353302001953125	23.9999999394058	-0.0283812396228313	
242	55.7858568591543	0.356536865234375	24.0999999391533	0.0872799381613731	
243	55.8858568589018	0.353607177734375	24.1999999389009	-0.101012796163559	
244	55.9858568586493	0.351715087890625	24.2999999386484	0.0102742118760943	
245	56.0858568583968	0.3529052734375	24.3999999383959	0.0341286957263947	
246	56.1858568581443	0.349639892578125	24.4999999381434	-0.0800574719905853	
247	56.2858568578919	0.349639892578125	24.599999937891	0.0420632362365723	
248	56.3858568576394	0.350677490234375	24.6999999376385	0.00813798978924751	
249	56.4858568573869	0.353912353515625	24.799999937386	0.0472003407776356	
250	56.5858568571344	0.35498046875	24.8999999371335	-0.014699243940413	
251	56.685856856882	0.35369873046875	24.9999999368811	-0.0251769050955772	
252	56.7858568566295	0.355987548828125	25.0999999366286	0.0604754351079464	
253	56.885856856377	0.3541259765625	25.1999999363761	-0.0651039183139801	
254	56.9858568561245	0.35498046875	25.2999999361236	0.0450132563710213	
255	57.0858568558721	0.352752685546875	25.3999999358712	-0.0570167899131775	
256	57.1858568556196	0.354888916015625	25.4999999356187	0.0680030807852745	
257	57.2858568553671	0.356475830078125	25.5999999353662	-0.00325519591569901	
258	57.3858568551146	0.359222412109375	25.6999999351137	0.038960624486208	
259	57.4858568548622	0.357879638671875	25.7999999348613	-0.0513710603117943	
260	57.5858568546097	0.35174560546875	25.8999999346088	-0.0876359790563583	
261	57.6858568543572	0.3546142578125	25.9999999343563	0.119679309427738	
262	57.7858568541047	0.35894775390625	26.0999999341038	0.0255329422652721	
263	57.8858568538523	0.3560791015625	26.1999999338514	-0.0935868844389915	
264	57.9858568535998	0.3590087890625	26.2999999335989	0.101623147726059	
265	58.0858568533473	0.35943603515625	26.3999999333464	-0.0359088815748692	
266	58.1858568530948	0.357666015625	26.4999999330939	-0.0276691652834415	
267	58.2858568528424	0.3583984375	26.5999999328415	0.0355019792914391	
268	58.3858568525899	0.359405517578125	26.699999932589	0.00401813257485628	
269	58.4858568523374	0.35791015625	26.7999999323365	-0.0367226786911488	
270	58.5858568520849	0.356842041015625	26.899999932084	0.00122069846838713	
271	58.6858568518325	0.35723876953125	26.9999999318316	0.0147501062601805	
272	58.78585685158	0.3604736328125	27.0999999315791	0.0511167496442795	
273	58.8858568513275	0.360015869140625	27.1999999313266	-0.0448098070919514	
274	58.985856851075	0.360137939453125	27.2999999310741	0.0183613393455744	
275	59.0858568508226	0.360504150390625	27.3999999308217	0.00376382027752697	
276	59.1858568505701	0.362274169921875	27.4999999305692	0.0285846889019012	
277	59.2858568503176	0.361083984375	27.5999999303167	-0.0412494353950024	
278	59.3858568500651	0.3582763671875	27.6999999300642	-0.0316872969269753	
279	59.4858568498126	0.354705810546875	27.7999999298117	-0.0366718173027039	
280	59.5858568495602	0.358154296875	27.8999999295593	0.0955196544528008	
281	59.6858568493077	0.3585205078125	27.9999999293068	-0.0454201549291611	
282	59.7858568490552	0.355255126953125	28.0999999290543	-0.0526426210999489	
283	59.8858568488027	0.35992431640625	28.1999999288018	0.124918140470982	
284	59.9858568485503	0.35992431640625	28.2999999285494	-0.0653582289814949	
285	60.0858568482978	0.358428955078125	28.3999999282969	-0.0118509475141764	
286	60.1858568480453	0.357147216796875	28.4999999280444	-0.00605263002216816	
287	60.2858568477928	0.3570556640625	28.5999999277919	0.00829057674854994	
288	60.3858568475404	0.357421875	28.6999999275395	0.00350950821302831	
289	60.4858568472879	0.358673095703125	28.799999927287	0.0183613393455744	
290	60.5858568470354	0.3619384765625	28.8999999270345	0.0464882664382458	
291	60.6858568467829	0.3597412109375	28.999999926782	-0.0742082968354225	
292	60.7858568465305	0.358642578125	29.0999999265296	0.01637770421803	
293	60.885856846278	0.35693359375	29.1999999262771	-0.0258381180465221	
294	60.9858568460255	0.35736083984375	29.2999999260246	0.0241087954491377	
295	61.085856845773	0.356414794921875	29.3999999257721	-0.0280252024531364	
296	61.1858568455206	0.36102294921875	29.4999999255197	0.0969438031315804	
297	61.2858568452681	0.361236572265625	29.5999999252672	-0.0529986582696438	
298	61.3858568450156	0.361602783203125	29.6999999250147	0.0195820387452841	
299	61.4858568447631	0.365020751953125	29.7999999247622	0.059102151542902	
300	61.5858568445107	0.358917236328125	29.8999999245098	-0.150552809238434	
301	61.6858568442582	0.35955810546875	29.9999999242573	0.0943498164415359	
302	61.7858568440057	0.358734130859375	30.0999999240048	-0.0429278947412968	
303	61.8858568437532	0.35760498046875	30.1999999237523	-0.00895178876817226	
304	61.9858568435008	0.3558349609375	30.2999999234999	-0.0220234356820583	
305	62.0858568432483	0.358795166015625	30.3999999232474	0.0711565464735031	
306	62.1858568429958	0.36199951171875	30.4999999229949	0.0183104779571295	
307	62.2858568427433	0.359375	30.5999999227424	-0.0756324455142021	
308	62.3858568424909	0.360809326171875	30.69999992249	0.0675961747765541	
309	62.4858568422384	0.362396240234375	30.7999999222375	0.00361123308539391	
310	62.5858568419859	0.359466552734375	30.899999921985	-0.0674435868859291	
311	62.6858568417334	0.361236572265625	30.9999999217325	0.0719194859266281	
312	62.7858568414809	0.35968017578125	31.09999992148	-0.058949563652277	
313	62.8858568412285	0.36322021484375	31.1999999212276	0.0889583975076675	
314	62.985856840976	0.36328125	31.2999999209751	-0.0453692935407162	
315	63.0858568407235	0.362091064453125	31.3999999207226	-0.0107319736853242	
316	63.185856840471	0.36273193359375	31.4999999204701	0.0258381180465221	
317	63.2858568402186	0.361663818359375	31.5999999202177	-0.0310260858386755	
318	63.3858568399661	0.36480712890625	31.6999999199652	0.0722246617078781	
319	63.4858568397136	0.361328125	31.7999999197127	-0.104013681411743	
320	63.5858568394611	0.36065673828125	31.8999999194602	0.0387571752071381	
321	63.6858568392087	0.362518310546875	31.9999999192078	0.0303648747503757	
322	63.7858568389562	0.36566162109375	32.0999999189553	0.0336709320545197	
323	63.8858568387037	0.363494873046875	32.1999999187028	-0.0701901614665985	
324	63.9858568384512	0.36456298828125	32.2999999184503	0.0553383305668831	
325	64.0858568381988	0.359649658203125	32.3999999181979	-0.109761133790016	
326	64.1858568379463	0.359588623046875	32.4999999179454	0.0597633607685566	
327	64.2858568376938	0.36468505859375	32.5999999176929	0.0777686685323715	
328	64.3858568374413	0.36260986328125	32.6999999174404	-0.0977067425847054	
329	64.4858568371889	0.36163330078125	32.799999917188	0.0232949964702129	
330	64.5858568369364	0.36737060546875	32.8999999169355	0.109659411013126	
331	64.6858568366839	0.365997314453125	32.999999916683	-0.0953670665621758	
332	64.7858568364314	0.362457275390625	33.0999999164305	-0.0297545250505209	
333	64.885856836179	0.364166259765625	33.1999999161781	0.0680539384484291	
334	64.9858568359265	0.36077880859375	33.2999999159256	-0.0938411951065063	
335	65.085856835674	0.363616943359375	33.3999999156731	0.0972489789128304	
336	65.1858568354215	0.36383056640625	33.4999999154206	-0.0404864996671677	
337	65.2858568351691	0.3670654296875	33.5999999151682	0.0662737563252449	
338	65.3858568349166	0.36614990234375	33.6999999149157	-0.0538124591112137	
339	65.4858568346641	0.36651611328125	33.7999999146632	0.0281777903437614	
340	65.5858568344116	0.365631103515625	33.8999999144107	-0.0235493071377277	
341	65.6858568341592	0.360992431640625	33.9999999141583	-0.0734962224960327	
342	65.7858568339067	0.362274169921875	34.0999999139058	0.0746660530567169	
343	65.8858568336542	0.362884521484375	34.1999999136533	-0.0192260015755892	
344	65.9858568334017	0.364593505859375	34.2999999134008	0.0284829642623663	
345	66.0858568331493	0.366363525390625	34.3999999131483	0.0145466569811106	
346	66.1858568328968	0.36669921875	34.4999999128959	-0.00879920180886984	
347	66.2858568326443	0.3638916015625	34.5999999126434	-0.04948915168643	
348	66.3858568323918	0.36572265625	34.6999999123909	0.0674435868859291	
349	66.4858568321393	0.363189697265625	34.7999999121384	-0.0771583169698715	
350	66.5858568318869	0.3629150390625	34.899999911886	0.0306191872805357	
351	66.6858568316344	0.365325927734375	34.9999999116335	0.038960624486208	
352	66.7858568313819	0.364837646484375	35.099999911381	-0.0379942394793034	
353	66.8858568311294	0.364776611328125	35.1999999111285	0.0126138841733336	
354	66.985856830877	0.3668212890625	35.2999999108761	0.0365700908005238	
355	67.0858568306245	0.370208740234375	35.3999999106236	0.0380451008677483	
356	67.185856830372	0.369781494140625	35.4999999103711	-0.0405373610556126	
357	67.2858568301195	0.36676025390625	35.5999999101186	-0.039113212376833	
358	67.3858568298671	0.36517333984375	35.6999999098662	0.00473020644858479	
359	67.4858568296146	0.36376953125	35.7999999096137	-0.0172932278364897	
360	67.5858568293621	0.364959716796875	35.8999999093612	0.032907996326685	
361	67.6858568291096	0.365020751953125	35.9999999091087	-0.0174458157271147	
362	67.7858568288572	0.366973876953125	36.0999999088563	0.0390623509883881	
363	67.8858568286047	0.365936279296875	36.1999999086038	-0.0416054725646973	
364	67.9858568283522	0.36529541015625	36.2999999083513	0.00686642900109291	
365	68.0858568280997	0.3642578125	36.3999999080988	-0.0150044187903404	
366	68.1858568278473	0.363861083984375	36.4999999078464	0.00269570923410356	
367	68.2858568275948	0.36614990234375	36.5999999075939	0.043131347745657	
368	68.3858568273423	0.363922119140625	36.6999999073414	-0.0688677355647087	
369	68.4858568270898	0.365692138671875	36.7999999070889	0.0660703033208847	
370	68.5858568268374	0.36572265625	36.8999999068365	-0.0275165773928165	
371	68.6858568265849	0.369659423828125	36.999999906584	0.0777178034186363	
372	68.7858568263324	0.367340087890625	37.0999999063315	-0.0883480533957481	
373	68.8858568260799	0.363067626953125	37.199999906079	-0.0381468273699284	
374	68.9858568258275	0.365631103515625	37.2999999058266	0.0891109853982925	
375	69.085856825575	0.366485595703125	37.3999999055741	-0.0284829642623663	
376	69.1858568253225	0.366851806640625	37.4999999053216	0.00528969336301088	
377	69.28585682507	0.368011474609375	37.5999999050691	0.0198363494127989	
378	69.3858568248176	0.368011474609375	37.6999999048167	-0.0123087093234062	
379	69.4858568245651	0.368621826171875	37.7999999045642	0.0150552811101079	
380	69.5858568243126	0.369873046875	37.8999999043117	0.0158182177692652	
381	69.6858568240601	0.36895751953125	37.9999999040592	-0.0293476264923811	
382	69.7858568238076	0.36590576171875	38.0999999038067	-0.0410968475043774	
383	69.8858568235552	0.36505126953125	38.1999999035543	0.0168863292783499	
384	69.9858568233027	0.368194580078125	38.2999999033018	0.0574236921966076	
385	70.0858568230502	0.368682861328125	38.3999999030493	-0.0305683240294456	
386	70.1858568227977	0.366943359375	38.4999999027968	-0.0271096788346767	
387	70.2858568225453	0.369293212890625	38.5999999025444	0.0650021955370903	
388	70.3858568222928	0.369049072265625	38.6999999022919	-0.0376890636980534	
389	70.4858568220403	0.367034912109375	38.7999999020394	-0.0262450166046619	
390	70.5858568217878	0.363128662109375	38.8999999017869	-0.0489296652376652	
391	70.6858568215354	0.36431884765625	38.9999999015345	0.0606788881123066	
392	70.7858568212829	0.364776611328125	39.099999901282	-0.0185139272361994	
393	70.8858568210304	0.36676025390625	39.1999999010295	0.0349933579564095	
394	70.9858568207779	0.370330810546875	39.299999900777	0.0438434183597565	
395	71.0858568205255	0.366973876953125	39.3999999005246	-0.0965877696871758	
396	71.185856820273	0.368865966796875	39.4999999002721	0.0857540667057037	
397	71.2858568200205	0.36492919921875	39.5999999000196	-0.105437830090523	
398	71.385856819768	0.36529541015625	39.6999998997671	0.058949563652277	
399	71.4858568195156	0.366546630859375	39.7999998995147	0.00554400542750955	
400	71.5858568192631	0.36767578125	39.8999998992622	0.00732419081032276	
401	71.6858568190106	0.371063232421875	39.9999998990097	0.0531003847718239	
402	71.7858568187581	0.36798095703125	40.0999998987572	-0.0922644585371017	
403	71.8858568185057	0.366973876953125	40.1999998985048	0.0287881381809711	
404	71.9858568182532	0.3662109375	40.2999998982523	-0.0125121595337987	
405	72.0858568180007	0.36419677734375	40.3999998979998	-0.0313821248710155	
406	72.1858568177482	0.365142822265625	40.4999998977473	0.0382994152605534	
407	72.2858568174958	0.363067626953125	40.5999998974949	-0.0557960942387581	
408	72.3858568172433	0.36260986328125	40.6999998972424	0.0189716890454292	
409	72.4858568169908	0.3663330078125	40.7999998969899	0.0666806548833847	
410	72.5858568167383	0.36468505859375	40.8999998967374	-0.0751746818423271	
411	72.6858568164859	0.36846923828125	40.999999896485	0.101012796163559	
412	72.7858568162334	0.36578369140625	41.0999998962325	-0.0988765731453896	
413	72.8858568159809	0.364898681640625	41.19999989598	0.0277200285345316	
414	72.9858568157284	0.366058349609375	41.2999998957275	0.022633783519268	
415	73.0858568154759	0.36163330078125	41.399999895475	-0.097605012357235	
416	73.1858568152235	0.361419677734375	41.4999998952226	0.0515745095908642	
417	73.285856814971	0.362396240234375	41.5999998949701	0.00564573053270578	
418	73.3858568147185	0.36334228515625	41.6999998947176	0.00523883104324341	
419	73.485856814466	0.360504150390625	41.7999998944651	-0.0598142258822918	
420	73.5858568142136	0.35919189453125	41.8999998942127	0.0122069846838713	
421	73.6858568139611	0.358917236328125	41.9999998939602	0.000813798978924751	
422	73.7858568137086	0.359832763671875	42.0999998937077	0.0156147675588727	
423	73.8858568134561	0.355316162109375	42.1999998934552	-0.0944006815552711	
424	73.9858568132037	0.3570556640625	42.2999998932028	0.0876359790563583	
425	74.0858568129512	0.355316162109375	42.3999998929503	-0.0672401413321495	
426	74.1858568126987	0.356842041015625	42.4999998926978	0.0540667697787285	
427	74.2858568124462	0.3583984375	42.5999998924453	0.00493365619331598	
428	74.3858568121938	0.358612060546875	42.6999998921929	-0.00915523897856474	
429	74.4858568119413	0.361602783203125	42.7999998919404	0.0575254149734974	
430	74.5858568116888	0.361114501953125	42.8999998916879	-0.043131347745657	
431	74.6858568114363	0.359771728515625	42.9999998914354	-0.00895178876817226	
432	74.7858568111839	0.359100341796875	43.099999891183	0.0017293228302151	
433	74.8858568109314	0.359130859375	43.1999998909305	0.00391640746966004	
434	74.9858568106789	0.360076904296875	43.299999890678	0.0147501062601805	
435	75.0858568104264	0.362030029296875	43.3999998904255	0.0248717311769724	
436	75.185856810174	0.3641357421875	43.4999998901731	0.0189716890454292	
437	75.2858568099215	0.363677978515625	43.5999998899206	-0.026448467746377	
438	75.385856809669	0.363067626953125	43.6999998896681	0.00116983603220433	
439	75.4858568094165	0.359954833984375	43.7999998894156	-0.0514727868139744	
440	75.5858568091641	0.35760498046875	43.8999998891632	-0.00879920180886984	
441	75.6858568089116	0.359771728515625	43.9999998889107	0.0567624792456627	
442	75.7858568086591	0.35906982421875	44.0999998886582	-0.0459796413779259	
443	75.8858568084066	0.358551025390625	44.1999998884057	0.00590004259720445	
444	75.9858568081542	0.358001708984375	44.2999998881533	-0.0063578044064343	
445	76.0858568079017	0.360687255859375	44.3999998879008	0.0539141818881035	
446	76.1858568076492	0.361846923828125	44.4999998876483	-0.0119018098339438	
447	76.2858568073967	0.3614501953125	44.5999998873958	-0.0118509475141764	
448	76.3858568071443	0.36090087890625	44.6999998871433	-0.00157673552166671	
449	76.4858568068918	0.357177734375	44.7999998868909	-0.0631711483001709	
450	76.5858568066393	0.355316162109375	44.8999998866384	0.00747677823528647	
451	76.6858568063868	0.35833740234375	44.9999998863859	0.0646970197558403	
452	76.7858568061343	0.358245849609375	45.0999998861334	-0.043131347745657	
453	76.8858568058819	0.3641357421875	45.199999885881	0.119119822978973	
454	76.9858568056294	0.36029052734375	45.2999998856285	-0.139515668153763	
455	77.0858568053769	0.35894775390625	45.399999885376	0.039876151829958	
456	77.1858568051244	0.356842041015625	45.4999998851235	-0.0357562936842442	
457	77.285856804872	0.35528564453125	45.5999998848711	-0.00844316463917494	
458	77.3858568046195	0.353546142578125	45.6999998846186	-0.0207518748939037	
459	77.485856804367	0.3544921875	45.7999998843661	0.03245023265481	
460	77.5858568041145	0.356170654296875	45.8999998841136	0.0139363072812557	
461	77.6858568038621	0.35443115234375	45.9999998838612	-0.0483193136751652	
462	77.7858568036096	0.35546875	46.0999998836087	0.0449115298688412	
463	77.8858568033571	0.355865478515625	46.1999998833562	-0.0106302490457892	
464	77.9858568031046	0.353118896484375	46.2999998831037	-0.0515236482024193	
465	78.0858568028522	0.35113525390625	46.3999998828513	-0.00300088385120034	
466	78.1858568025997	0.351898193359375	46.4999998825988	0.0279743392020464	
467	78.2858568023472	0.35479736328125	46.5999998823463	0.0376382023096085	
468	78.3858568020947	0.35491943359375	46.6999998820938	-0.0290424507111311	
469	78.4858568018423	0.355133056640625	46.7999998818414	0.0121561223641038	
470	78.5858568015898	0.355133056640625	46.8999998815889	-0.00208535999991	
471	78.6858568013373	0.354339599609375	46.9999998813364	-0.0138345826417208	
472	78.7858568010848	0.353759765625	47.0999998810839	-0.00137328577693552	
473	78.8858568008324	0.35302734375	47.1999998808315	-0.00930782593786716	
474	78.9858568005799	0.35321044921875	47.299999880579	0.00996903795748949	
475	79.0858568003274	0.351898193359375	47.3999998803265	-0.0286355521529913	
476	79.1858568000749	0.349517822265625	47.499999880074	-0.0277200285345316	
477	79.2858567998225	0.351898193359375	47.5999998798216	0.0670366883277893	
478	79.38585679957	0.348968505859375	47.6999998795691	-0.0894161611795425	
479	79.4858567993175	0.34765625	47.7999998793166	0.0180561654269695	
480	79.585856799065	0.35162353515625	47.8999998790641	0.0782772898674011	
481	79.6858567988126	0.3505859375	47.9999998788116	-0.0696815401315689	
482	79.7858567985601	0.350341796875	48.0999998785592	0.0208535995334387	
483	79.8858567983076	0.34967041015625	48.1999998783067	-0.0129190590232611	
484	79.9858567980551	0.349029541015625	48.2999998780542	-0.00473020644858479	
485	80.0858567978026	0.3515625	48.3999998778017	0.0516762360930443	
486	80.1858567975502	0.35186767578125	48.4999998775493	-0.0260924305766821	
487	80.2858567972977	0.351287841796875	48.5999998772968	-0.00574745517224073	
488	80.3858567970452	0.35150146484375	48.6999998770443	0.0116983605548739	
489	80.4858567967927	0.34942626953125	48.7999998767918	-0.0424701347947121	
490	80.5858567965403	0.348968505859375	48.8999998765394	0.016530292108655	
491	80.6858567962878	0.350555419921875	48.9999998762869	0.0275165773928165	
492	80.7858567960353	0.351898193359375	49.0999998760344	0.00457761948928237	
493	80.8858567957828	0.350128173828125	49.1999998757819	-0.042826171964407	
494	80.9858567955304	0.35308837890625	49.2999998755295	0.0793962627649307	
495	81.0858567952779	0.351898193359375	49.399999875277	-0.0622556209564209	
496	81.1858567950254	0.3536376953125	49.4999998750245	0.0556435063481331	
497	81.2858567947729	0.350860595703125	49.599999874772	-0.0751746818423271	
498	81.3858567945205	0.3533935546875	49.6999998745196	0.0846350938081741	
499	81.485856794268	0.3519287109375	49.7999998742671	-0.0656634047627449	
500	81.5858567940155	0.35400390625	49.8999998740146	0.0635780468583107	
501	81.685856793763	0.352874755859375	49.9999998737621	-0.0497943237423897	
502	81.7858567935106	0.349365234375	50.0999998735097	-0.0442503206431866	
503	81.8858567932581	0.350250244140625	50.1999998732572	0.0534055568277836	
504	81.9858567930056	0.3526611328125	50.2999998730047	0.0221760217100382	
505	82.0858567927531	0.352569580078125	50.3999998727522	-0.0268553663045168	
506	82.1858567925007	0.35205078125	50.4999998724998	-0.000406899489462376	
507	82.2858567922482	0.350555419921875	50.5999998722473	-0.0216673985123634	
508	82.3858567919957	0.350860595703125	50.6999998719948	0.0213113613426685	
509	82.4858567917432	0.34942626953125	50.7999998717423	-0.0348407700657845	
510	82.5858567914908	0.35223388671875	50.8999998714899	0.0692237764596939	
511	82.6858567912383	0.356292724609375	50.9999998712374	0.0368752665817738	
512	82.7858567909858	0.357757568359375	51.0999998709849	-0.0111388731747866	
513	82.8858567907333	0.358642578125	51.1999998707324	0.0126647464931011	
514	82.9858567904809	0.355072021484375	51.29999987048	-0.0709022358059883	
515	83.0858567902284	0.351776123046875	51.3999998702275	-0.0158182177692652	
516	83.1858567899759	0.35284423828125	51.499999869975	0.0461322292685509	
517	83.2858567897234	0.35247802734375	51.5999998697225	-0.0301614254713058	
518	83.3858567894709	0.350830078125	51.69999986947	-0.0223794728517532	
519	83.4858567892185	0.35247802734375	51.7999998692176	0.0482175908982754	
520	83.585856788966	0.355255126953125	51.8999998689651	0.026194155216217	
521	83.6858567887135	0.3560791015625	51.9999998687126	-0.0118000851944089	
522	83.785856788461	0.35504150390625	52.0999998684601	-0.019378587603569	
523	83.8858567882086	0.35162353515625	52.1999998682077	-0.0478106886148453	
524	83.9858567879561	0.349029541015625	52.2999998679552	-0.0111388731747866	
525	84.0858567877036	0.3468017578125	52.3999998677027	-0.0219725724309683	
526	84.1858567874511	0.349456787109375	52.4999998674502	0.0660194456577301	
527	84.2858567871987	0.3475341796875	52.5999998671978	-0.0736488103866577	
528	84.3858567869462	0.351043701171875	52.6999998669453	0.0956213772296906	
529	84.4858567866937	0.351318359375	52.7999998666928	-0.0423175469040871	
530	84.5858567864412	0.348480224609375	52.8999998664403	-0.0435382463037968	
531	84.6858567861888	0.345062255859375	52.9999998661879	-0.0286355521529913	
532	84.7858567859363	0.345916748046875	53.0999998659354	0.046081367880106	
533	84.8858567856838	0.348358154296875	53.1999998656829	0.0233967211097479	
534	84.9858567854313	0.347900390625	53.2999998654304	-0.0340269692242146	
535	85.0858567851789	0.34930419921875	53.399999865178	0.0392149388790131	
536	85.1858567849264	0.350128173828125	53.4999998649255	-0.00279743410646915	
537	85.2858567846739	0.35150146484375	53.599999864673	0.0202432498335838	
538	85.3858567844214	0.35400390625	53.6999998644205	0.032602820545435	
539	85.485856784169	0.34906005859375	53.7999998641681	-0.115254282951355	
540	85.5858567839165	0.350372314453125	53.8999998639156	0.0900773778557777	
541	85.685856783664	0.348236083984375	53.9999998636631	-0.0709531009197235	
542	85.7858567834115	0.351715087890625	54.0999998634106	0.0930782556533813	
543	85.8858567831591	0.3538818359375	54.1999998631582	-0.00798540282994509	
544	85.9858567829066	0.349090576171875	54.2999998629057	-0.101521424949169	
545	86.0858567826541	0.348419189453125	54.3999998626532	0.0508115738630295	
546	86.1858567824016	0.348236083984375	54.4999998624007	-0.0114949103444815	
547	86.2858567821492	0.347412109375	54.5999998621483	-0.0152078680694103	
548	86.3858567818967	0.347869873046875	54.6999998618958	0.0173949524760246	
549	86.4858567816442	0.3450927734375	54.7999998616433	-0.0590004250407219	
550	86.5858567813917	0.34759521484375	54.8999998613908	0.0798031613230705	
551	86.6858567811393	0.35107421875	54.9999998611383	0.0253294929862022	
552	86.7858567808868	0.349639892578125	55.0999998608859	-0.0585426650941372	
553	86.8858567806343	0.349029541015625	55.1999998606334	0.0171406418085098	
554	86.9858567803818	0.3497314453125	55.2999998603809	0.0152078680694103	
555	87.0858567801293	0.350860595703125	55.3999998601284	0.0104776620864868	
556	87.1858567798769	0.350372314453125	55.499999859876	-0.019785488024354	
557	87.2858567796244	0.349609375	55.5999998596235	-0.00452675670385361	
558	87.3858567793719	0.348876953125	55.699999859371	-0.00615435466170311	
559	87.4858567791194	0.349456787109375	55.7999998591185	0.0166320167481899	
560	87.585856778867	0.352325439453125	55.8999998588661	0.0433856584131718	
561	87.6858567786145	0.351287841796875	55.9999998586136	-0.0505572631955147	
562	87.785856778362	0.350128173828125	56.0999998583611	0.000406899489462376	
563	87.8858567781095	0.349945068359375	56.1999998581086	0.0067138415761292	
564	87.9858567778571	0.350006103515625	56.2999998578562	-0.000610349234193563	
565	88.0858567776046	0.350341796875	56.3999998576037	0.00483193155378103	
566	88.1858567773521	0.349029541015625	56.4999998573512	-0.0277708899229765	
567	88.2858567770996	0.35284423828125	56.5999998570987	0.0863644182682037	
568	88.3858567768472	0.353515625	56.6999998568463	-0.0365700908005238	
569	88.4858567765947	0.35418701171875	56.7999998565938	0.0171915031969547	
570	88.5858567763422	0.351898193359375	56.8999998563413	-0.0475563779473305	
571	88.6858567760897	0.351348876953125	56.9999998560888	0.0188699644058943	
572	88.7858567758373	0.3504638671875	57.0999998558364	-0.0174458157271147	
573	88.8858567755848	0.35198974609375	57.1999998555839	0.036468368023634	
574	88.9858567753323	0.353759765625	57.2999998553314	0.0116983605548739	
575	89.0858567750798	0.353271484375	57.3999998550789	-0.0245156940072775	
576	89.1858567748274	0.354827880859375	57.4999998548265	0.0401304624974728	
577	89.2858567745749	0.3558349609375	57.599999854574	-0.00132242334075272	
578	89.3858567743224	0.3543701171875	57.6999998543215	-0.0334166213870049	
579	89.4858567740699	0.353302001953125	57.799999854069	0.000864661415107548	
580	89.5858567738175	0.3551025390625	57.8999998538166	0.0405882224440575	
581	89.685856773565	0.353729248046875	57.9999998535641	-0.0497434623539448	
582	89.7858567733125	0.35565185546875	58.0999998533116	0.0572711043059826	
583	89.88585677306	0.35589599609375	58.1999998530591	-0.0225320588797331	
584	89.9858567728076	0.35601806640625	58.2999998528066	0.0057983179576695	
585	90.0858567725551	0.354034423828125	58.3999998525542	-0.0369769893586636	
586	90.1858567723026	0.3543701171875	58.4999998523017	0.029703663662076	
587	90.2858567720501	0.35369873046875	58.5999998520492	-0.0228372346609831	
588	90.3858567717976	0.35296630859375	58.6999998517967	-0.00447589438408613	
589	90.4858567715452	0.35382080078125	58.7999998515443	0.0219725724309683	
590	90.5858567712927	0.358489990234375	58.8999998512918	0.0731910467147827	
591	90.6858567710402	0.3553466796875	58.9999998510393	-0.109252512454987	
592	90.7858567707877	0.3541259765625	59.0999998507868	0.0298562496900558	
593	90.8858567705353	0.355987548828125	59.1999998505344	0.0378925167024136	
594	90.9858567702828	0.35791015625	59.2999998502819	0.00946041289716959	
595	91.0858567700303	0.355072021484375	59.3999998500294	-0.0682573914527893	
596	91.1858567697778	0.35198974609375	59.4999998497769	-0.0169880539178848	
597	91.2858567695254	0.350341796875	59.5999998495245	-0.0037129579577595	
598	91.3858567692729	0.3516845703125	59.699999849272	0.0335692092776299	
599	91.4858567690204	0.35430908203125	59.7999998490195	0.0269570909440517	
600	91.5858567687679	0.356201171875	59.899999848767	0.00854488927870989	
